PERMNO,date,TICKER,C2C,indexC2C,C2CindexAdj,C2CindexAdjFwd3Days,C2CindexAdjFwd5Days,C2CindexAdjFwd10Days,C2CindexAdjFwd1Day
75825,20010102,EOG,-0.01945100,-0.02800000,0.00854900,,,,-0.13518099
75825,20010103,EOG,-0.08518100,0.05000000,-0.13518099,-0.16040305,,,-0.04257100
75825,20010104,EOG,-0.05357100,-0.01100000,-0.04257100,-0.11880142,,,0.05699700
75825,20010105,EOG,0.03099700,-0.02600000,0.05699700,0.04119183,-0.08185001,,0.02945100
75825,20010108,EOG,0.02745100,-0.00200000,0.02945100,0.06718648,-0.11031426,,-0.01926700
75825,20010109,EOG,-0.01526700,0.00400000,-0.01926700,0.00628900,0.01876600,,-0.00354000
75825,20010110,EOG,0.00646000,0.01000000,-0.00354000,-0.05471466,0.03139746,,-0.03182300
75825,20010111,EOG,-0.02182300,0.01000000,-0.03182300,-0.04555531,-0.03618169,,-0.01032500
75825,20010112,EOG,-0.01632500,-0.00600000,-0.01032500,-0.02463163,-0.04758652,-0.12662135,0.01803200
75825,20010116,EOG,0.02403200,0.00600000,0.01803200,-0.06294220,-0.09764026,-0.20093646,-0.06979699
75825,20010117,EOG,-0.06779700,0.00200000,-0.06979699,-0.09288529,-0.13203001,-0.11193128,-0.04057300
75825,20010118,EOG,-0.02657300,0.01400000,-0.04057300,-0.08888732,-0.08209894,-0.05253989,0.02124100
75825,20010119,EOG,0.01724100,-0.00400000,0.02124100,-0.00295107,-0.05675451,-0.09244331,0.01694900
75825,20010122,EOG,0.01694900,0.00000000,0.01694900,0.04852258,-0.06553727,-0.11278274,0.00922200
75825,20010123,EOG,0.02222200,0.01300000,0.00922200,0.02350871,0.00322784,-0.09720881,-0.00300000
75825,20010124,EOG,0.00000000,0.00300000,-0.00300000,0.04043024,0.08072838,-0.06076203,0.03353300
75825,20010125,EOG,0.02853300,-0.00500000,0.03353300,0.02303305,0.05038521,-0.03598305,-0.00724700
75825,20010126,EOG,-0.00924700,-0.00200000,-0.00724700,-0.01343863,-0.00755449,-0.06492454,-0.03889300
75825,20010129,EOG,-0.03189300,0.00700000,-0.03889300,-0.07146592,-0.04258988,-0.10705993,-0.02639200
75825,20010130,EOG,-0.01939200,0.00700000,-0.02639200,-0.07484488,-0.05004931,-0.04828847,-0.01107900
75825,20010131,EOG,-0.01707900,-0.00600000,-0.01107900,-0.05290070,-0.09684435,-0.02371746,-0.01620300
75825,20010201,EOG,-0.01120300,0.00500000,-0.01620300,0.03935992,-0.02618412,0.02243533,0.06786700
75825,20010202,EOG,0.05086700,-0.01700000,0.06786700,0.04265549,0.00431786,-0.00314590,-0.00840000
75825,20010205,EOG,-0.00440000,0.00400000,-0.00840000,0.08116995,0.05223621,0.00862684,0.02100600
75825,20010206,EOG,0.01900600,-0.00200000,0.02100600,0.04804906,0.10079833,0.04669947,0.03510900
75825,20010207,EOG,0.02710900,-0.00800000,0.03510900,0.03470874,0.09468050,-0.00750610,-0.02060500
75825,20010208,EOG,-0.02660500,-0.00600000,-0.02060500,0.05626500,0.06927705,0.04163706,0.04271800
75825,20010209,EOG,0.02971800,-0.01300000,0.04271800,-0.00953154,0.04623353,0.05034524,-0.03095900
75825,20010212,EOG,-0.01895900,0.01200000,-0.03095900,0.03313941,0.04672765,0.09940308,0.02166900
75825,20010213,EOG,0.01266900,-0.00900000,0.02166900,-0.00931196,0.01192962,0.11189560,0.00009200
75825,20010214,EOG,-0.00190800,-0.00200000,0.00009200,-0.02420111,-0.01313103,0.08028442,-0.04560400
75825,20010215,EOG,-0.03760400,0.00800000,-0.04560400,-0.01061891,-0.01984803,0.04783501,0.03533600
75825,20010216,EOG,0.01633600,-0.01900000,0.03533600,0.00183118,0.02296230,0.06807934,0.01265600
75825,20010220,EOG,-0.00434400,-0.01700000,0.01265600,0.04075467,-0.00382410,0.04055773,-0.00586900
75825,20010221,EOG,-0.02486900,-0.01900000,-0.00586900,-0.00453170,-0.01475934,-0.00331601,-0.01142300
75825,20010222,EOG,-0.01342300,-0.00200000,-0.01142300,-0.02224804,0.02380742,0.01107155,-0.00556500
75825,20010223,EOG,-0.01156500,-0.00600000,-0.00556500,-0.01827308,-0.01111087,-0.03008597,-0.00117100
75825,20010226,EOG,0.01582900,0.01700000,-0.00117100,0.00331145,-0.01385828,0.00890309,0.01003300
75825,20010227,EOG,0.00203300,-0.00800000,0.01003300,0.00548975,-0.01140278,-0.01458158,-0.00335400
75825,20010228,EOG,-0.01735400,-0.01400000,-0.00335400,0.00645644,-0.00019171,-0.01478783,-0.00008300
75825,20010301,EOG,0.00091700,0.00100000,-0.00008300,0.03538840,0.04488085,0.06675031,0.03945600
75825,20010302,EOG,0.03345600,-0.00600000,0.03945600,0.04765946,0.05346560,0.04054354,0.00774700
75825,20010305,EOG,0.01374700,0.00600000,0.00774700,0.05213497,0.04780391,0.03245670,0.00377900
75825,20010306,EOG,0.01377900,0.01000000,0.00377900,0.05943910,0.10176673,0.08766529,0.04642700
75825,20010307,EOG,0.05242700,0.00600000,0.04642700,0.08098829,0.13341020,0.13182336,0.02813500
75825,20010308,EOG,0.03013500,0.00200000,0.02813500,0.10478211,0.11914126,0.16808627,0.02818400
75825,20010309,EOG,0.00318400,-0.02500000,0.02818400,0.03881786,0.08897489,0.14265839,-0.01472700
75825,20010312,EOG,-0.05772700,-0.04300000,-0.01472700,-0.01334072,0.05763725,0.10584570,-0.02721100
75825,20010313,EOG,-0.01221100,0.01500000,-0.02721100,-0.04251032,0.00949068,0.10468042,-0.00319900
75825,20010314,EOG,-0.02919900,-0.02600000,-0.00319900,-0.05159517,-0.03663997,0.08161259,-0.02268500
75825,20010315,EOG,-0.01668500,0.00600000,-0.02268500,-0.00543107,-0.04402967,0.06191434,0.02022300
75825,20010316,EOG,0.00022300,-0.02000000,0.02022300,-0.00099133,-0.03072164,0.05636274,0.00142000
75825,20010319,EOG,0.01942000,0.01800000,0.00142000,0.06894680,0.04123990,0.09673703,0.04655300
75825,20010320,EOG,0.02255300,-0.02400000,0.04655300,0.00869093,0.00625911,0.01497380,-0.03767500
75825,20010321,EOG,-0.05567500,-0.01800000,-0.03767500,-0.01656477,0.00411797,-0.03122339,-0.02457100
75825,20010322,EOG,-0.02857100,-0.00400000,-0.02457100,-0.06658459,-0.02068114,-0.06202250,-0.00506100
75825,20010323,EOG,0.01493900,0.02000000,-0.00506100,-0.04228785,-0.03344898,-0.06240269,-0.01215000
75825,20010326,EOG,-0.00115000,0.01100000,-0.01215000,-0.06970367,-0.12819374,-0.08491627,-0.05109800
75825,20010327,EOG,-0.02509800,0.02600000,-0.05109800,-0.04780967,-0.07748785,-0.06858357,0.01455300
75825,20010328,EOG,-0.00944700,-0.02400000,0.01455300,-0.07327472,-0.09166875,-0.08344669,-0.03911100
75825,20010329,EOG,-0.04411100,-0.00500000,-0.03911100,-0.00801882,-0.07015817,-0.08915287,0.01743600
75825,20010330,EOG,0.02843600,0.01100000,0.01743600,-0.04823745,-0.08204785,-0.11131336,-0.02607900
75825,20010402,EOG,-0.03807900,-0.01200000,-0.02607900,-0.01978270,-0.04214130,-0.15832955,-0.01062900
75825,20010403,EOG,-0.04462900,-0.03400000,-0.01062900,-0.00223582,-0.02396403,-0.09696178,0.03599000
75825,20010404,EOG,0.03299000,-0.00300000,0.03599000,0.01141551,0.00164661,-0.09052572,-0.01359600
75825,20010405,EOG,0.03040400,0.04400000,-0.01359600,0.04487428,0.00511238,-0.06345427,0.02049600
75825,20010406,EOG,0.00049600,-0.02000000,0.02049600,0.04176624,0.06574997,-0.02145175,0.03289200
75825,20010409,EOG,0.04089200,0.00800000,0.03289200,0.05094799,0.07809930,0.02539090,-0.00390500
75825,20010410,EOG,0.02309500,0.02700000,-0.00390500,0.02459866,0.03341254,0.00585110,-0.00474900
75825,20010411,EOG,-0.00674900,-0.00200000,-0.00474900,-0.00697060,0.04846892,0.05045127,0.00188600
75825,20010412,EOG,0.01688600,0.01500000,0.00188600,0.02920895,0.06111608,0.06515666,0.03182800
75825,20010416,EOG,0.02882800,-0.00300000,0.03182800,0.04054328,0.03225060,0.10303121,0.00569200
75825,20010417,EOG,0.01569200,0.01000000,0.00569200,-0.02018135,-0.02346685,0.05615744,-0.05709800
75825,20010418,EOG,-0.01809800,0.03900000,-0.05709800,-0.09329475,-0.06120061,-0.03079264,-0.04064700
75825,20010419,EOG,-0.02764700,0.01300000,-0.04064700,-0.07856827,-0.04246384,0.00521014,0.01917100
75825,20010420,EOG,0.01017100,-0.00900000,0.01917100,0.06534480,0.01367101,0.07854641,0.08822700
75825,20010423,EOG,0.07322700,-0.01500000,0.08822700,0.11394302,0.01451388,0.04840870,0.00667000
75825,20010424,EOG,-0.00533000,-0.01200000,0.00667000,0.10255486,0.07933704,0.05892755,0.00629400
75825,20010425,EOG,0.02229400,0.01600000,0.00629400,0.01100361,0.12089077,0.06238113,-0.00206400
75825,20010426,EOG,0.00293600,0.00500000,-0.00206400,-0.02246199,0.07378154,0.03153100,-0.02608100
75825,20010427,EOG,-0.01108100,0.01500000,-0.02608100,-0.04427392,-0.03176072,-0.01943455,-0.01623900
75825,20010430,EOG,-0.01923900,-0.00300000,-0.01623900,-0.07588216,-0.07347604,-0.06044207,-0.03426300
75825,20010501,EOG,-0.02026300,0.01400000,-0.03426300,-0.11471796,-0.14237050,-0.07071244,-0.06722700
75825,20010502,EOG,-0.06622700,0.00100000,-0.06722700,-0.09205089,-0.13133242,-0.02289648,0.00722400
75825,20010503,EOG,-0.00777600,-0.01500000,0.00722400,-0.03983361,-0.08833529,-0.02103819,0.02209600
75825,20010504,EOG,0.03609600,0.01400000,0.02209600,0.03171760,-0.07082401,-0.10218810,0.00245800
75825,20010507,EOG,0.00045800,-0.00200000,0.00245800,0.03493358,-0.02769838,-0.10015288,0.01001800
75825,20010508,EOG,0.00801800,-0.00200000,0.01001800,0.04396387,0.07421238,-0.07502088,0.03127300
75825,20010509,EOG,0.02727300,-0.00400000,0.03127300,0.02729753,0.05274685,-0.08566958,-0.01371700
75825,20010510,EOG,-0.01371700,-0.00000000,-0.01371700,0.02128657,0.03379341,-0.05575797,0.00418700
75825,20010511,EOG,-0.00381300,-0.00800000,0.00418700,0.01055493,0.05222284,-0.02090767,0.02041800
75825,20010514,EOG,0.02341800,0.00300000,0.02041800,0.06289788,0.08082252,0.05079492,0.03762400
75825,20010515,EOG,0.03762400,0.00000000,0.03762400,0.03354160,0.02318306,0.10059775,-0.02545500
75825,20010516,EOG,0.00254500,0.02800000,-0.02545500,0.02700260,0.05283198,0.11004405,0.01413200
75825,20010517,EOG,0.01713200,0.00300000,0.01413200,0.00950481,0.07103021,0.10735326,0.02049800
75825,20010518,EOG,0.02349800,0.00300000,0.02049800,0.03077126,0.04454613,0.10125488,-0.00462300
75825,20010521,EOG,0.01137700,0.01600000,-0.00462300,0.01083411,-0.00049732,0.08413437,-0.00503500
75825,20010522,EOG,-0.00803500,-0.00300000,-0.00503500,-0.04652107,-0.01352033,0.00910393,-0.03685500
75825,20010523,EOG,-0.05285500,-0.01600000,-0.03685500,-0.06012514,-0.04640141,0.00292157,-0.01967700
75825,20010524,EOG,-0.01667700,0.00300000,-0.01967700,-0.05408693,-0.06372271,-0.00046527,0.00091100
75825,20010525,EOG,-0.01108900,-0.01200000,0.00091100,-0.01831503,-0.05801672,-0.02058345,0.00008400
75825,20010529,EOG,-0.00791600,-0.00800000,0.00008400,0.01405867,-0.04053043,-0.04291175,0.01334000
75825,20010530,EOG,-0.00266000,-0.01600000,0.01334000,0.00504205,-0.01330803,-0.02632128,-0.00844400
75825,20010531,EOG,-0.00244400,0.00600000,-0.00844400,0.00347636,0.00439136,-0.04099916,-0.00155000
75825,20010601,EOG,0.00245000,0.00400000,-0.00155000,-0.00107408,0.01245510,-0.05163045,0.00900000
75825,20010604,EOG,0.01400000,0.00500000,0.00900000,-0.01857339,-0.01336963,-0.07082043,-0.02571100
75825,20010605,EOG,-0.01271100,0.01300000,-0.02571100,-0.07886634,-0.08895918,-0.12228633,-0.06203000
75825,20010606,EOG,-0.07303000,-0.01100000,-0.06203000,-0.10482842,-0.09904079,-0.10857998,-0.01936800
75825,20010607,EOG,-0.01436800,0.00500000,-0.01936800,-0.06757482,-0.08434948,-0.07813007,0.01313000
75825,20010608,EOG,0.00413000,-0.00900000,0.01313000,0.01488634,-0.07200481,-0.05991390,0.02130800
75825,20010611,EOG,0.01330800,-0.00800000,0.02130800,0.05457532,-0.02915062,-0.04218218,0.01977400
75825,20010612,EOG,0.02077400,0.00100000,0.01977400,0.02398104,0.01759389,-0.07068355,-0.01636800
75825,20010613,EOG,-0.02736800,-0.01100000,-0.01636800,0.00252111,0.03602828,-0.06161991,-0.00027800
75825,20010614,EOG,-0.01827800,-0.01800000,-0.00027800,-0.01382719,0.02567190,-0.05736102,0.00255000
75825,20010615,EOG,-0.00245000,-0.00500000,0.00255000,-0.02222906,-0.01930063,-0.08701706,-0.02496100
75825,20010618,EOG,-0.02996100,-0.00500000,-0.02496100,-0.01626860,-0.03176345,-0.05825451,0.00636700
75825,20010619,EOG,0.00936700,0.00300000,0.00636700,-0.04650555,-0.04330136,-0.02580418,-0.02806200
75825,20010620,EOG,-0.01906200,0.00900000,-0.02806200,-0.08771655,-0.10776049,-0.07037549,-0.06622900
75825,20010621,EOG,-0.05522900,0.01100000,-0.06622900,-0.05731917,-0.07518823,-0.04817870,0.03795800
75825,20010622,EOG,0.02895800,-0.00900000,0.03795800,-0.03628883,-0.05774102,-0.07391215,-0.00688800
75825,20010625,EOG,-0.01288800,-0.00600000,-0.00688800,0.04425070,-0.05074844,-0.07918334,0.01345800
75825,20010626,EOG,0.01145800,-0.00200000,0.01345800,-0.02150669,-0.05029321,-0.09012753,-0.02792900
75825,20010627,EOG,-0.03292900,-0.00500000,-0.02792900,-0.06860798,-0.03889122,-0.14187687,-0.05476800
75825,20010628,EOG,-0.04276800,0.01200000,-0.05476800,-0.06942057,-0.06286271,-0.13372463,0.01266800
75825,20010629,EOG,0.01166800,-0.00100000,0.01266800,-0.07149259,-0.08510238,-0.13940511,-0.02940900
75825,20010702,EOG,-0.01940900,0.01000000,-0.02940900,-0.00014138,-0.08192588,-0.12945808,0.01691700
75825,20010703,EOG,0.01491700,-0.00200000,0.01691700,0.01818070,-0.02480554,-0.07391991,0.03093700
75825,20010705,EOG,0.01893700,-0.01200000,0.03093700,0.09230527,0.07523390,0.03374608,0.04380400
75825,20010706,EOG,0.02080400,-0.02300000,0.04380400,0.02853225,0.01599120,-0.04663990,-0.04504300
75825,20010709,EOG,-0.03804300,0.00700000,-0.04504300,-0.00030055,0.04636145,-0.03833787,0.00157100
75825,20010710,EOG,-0.01242900,-0.01400000,0.00157100,-0.07478873,-0.00353703,-0.08173787,-0.03361100
75825,20010711,EOG,-0.03461100,-0.00100000,-0.03361100,-0.06910645,-0.06974601,-0.09310794,-0.03851900
75825,20010712,EOG,-0.01451900,0.02400000,-0.03851900,-0.05571614,-0.09708056,-0.02479194,0.01715100
75825,20010713,EOG,0.02315100,0.00600000,0.01715100,-0.05145341,-0.08127392,-0.06488314,-0.02960000
75825,20010716,EOG,-0.04060000,-0.01100000,-0.02960000,-0.04705281,-0.11671793,-0.06939454,-0.03422600
75825,20010717,EOG,-0.02422600,0.01000000,-0.03422600,-0.07115500,-0.09343826,-0.09275123,-0.00939900
75825,20010718,EOG,-0.01539900,-0.00600000,-0.00939900,-0.04492201,-0.05755164,-0.12318166,-0.00153100
75825,20010719,EOG,0.00446900,0.00600000,-0.00153100,0.01246495,-0.05087285,-0.14372199,0.02365500
75825,20010720,EOG,0.02065500,-0.00300000,0.02365500,0.03764335,-0.00646184,-0.08648762,0.01537700
75825,20010723,EOG,-0.00062300,-0.01600000,0.01537700,0.01590106,0.00514319,-0.10798300,-0.02200600
75825,20010724,EOG,-0.03800600,-0.01600000,-0.02200600,0.07073446,0.09439114,-0.00446779,0.08082600
75825,20010725,EOG,0.09682600,0.01600000,0.08082600,0.06502509,0.10567765,0.04309704,0.00860100
75825,20010726,EOG,0.01860100,0.01000000,0.00860100,0.15022072,0.13736645,0.07916157,0.05278300
75825,20010727,EOG,0.05478300,0.00200000,0.05278300,0.03416586,0.09205549,0.08408454,-0.02620500
75825,20010730,EOG,-0.02720500,-0.00100000,-0.02620500,0.01763376,0.11140670,0.11343042,-0.00741300
75825,20010731,EOG,-0.00141300,0.00600000,-0.00741300,-0.05820315,0.00041166,0.09683182,-0.02521600
75825,20010801,EOG,-0.02121600,0.00400000,-0.02521600,-0.01971389,0.00521432,0.11298722,0.01334100
75825,20010802,EOG,0.01734100,0.00400000,0.01334100,-0.03069865,-0.06349480,0.06652753,-0.01858000
75825,20010803,EOG,-0.02358000,-0.00500000,-0.01858000,-0.00764505,-0.03970349,0.04807650,-0.00209300
75825,20010806,EOG,-0.01309300,-0.01100000,-0.00209300,-0.03217816,-0.04414112,0.06030992,-0.01213900
75825,20010807,EOG,-0.00913900,0.00300000,-0.01213900,-0.03911254,-0.04434026,-0.04489497,-0.02584400
75825,20010808,EOG,-0.04284400,-0.01700000,-0.02584400,-0.03813033,-0.05687614,-0.05297110,-0.00062200
75825,20010809,EOG,-0.00062200,-0.00000000,-0.00062200,-0.02162676,-0.03507162,-0.09541029,0.00519700
75825,20010810,EOG,0.01119700,0.00600000,0.00519700,0.01009016,-0.02823386,-0.06647332,0.00546000
75825,20010813,EOG,0.00646000,0.00100000,0.00546000,0.03901284,0.01080011,-0.03325143,0.02783900
75825,20010814,EOG,0.02383900,-0.00400000,0.02783900,0.12348737,0.12931478,0.07607183,0.08759700
75825,20010815,EOG,0.08059700,-0.00700000,0.08759700,0.11069478,0.12329464,0.05579526,-0.00631500
75825,20010816,EOG,-0.00331500,0.00300000,-0.00631500,0.07349023,0.10848412,0.06837962,-0.00572700
75825,20010817,EOG,-0.02272700,-0.01700000,-0.00572700,-0.05046584,0.06077303,0.03087108,-0.03948000
75825,20010820,EOG,-0.03148000,0.00800000,-0.03948000,-0.03385088,0.04287411,0.05326431,0.01053600
75825,20010821,EOG,-0.00146400,-0.01200000,0.01053600,-0.04683397,-0.05756776,0.06308499,-0.01843700
75825,20010822,EOG,-0.01143700,0.00700000,-0.01843700,-0.01769926,-0.06075018,0.05300621,-0.01005200
75825,20010823,EOG,-0.01305200,-0.00300000,-0.01005200,-0.06394048,-0.09133183,0.01158142,-0.03593000
75825,20010824,EOG,-0.01593000,0.02000000,-0.03593000,-0.04715597,-0.05444109,0.00436043,-0.00172000
75825,20010827,EOG,-0.00672000,-0.00500000,-0.00172000,-0.03364105,-0.06113174,-0.01919591,0.00331500
75825,20010828,EOG,-0.01168500,-0.01500000,0.00331500,0.01421213,-0.03050715,-0.08515410,0.01286700
75825,20010829,EOG,0.00186700,-0.01100000,0.01286700,0.01349050,-0.02266914,-0.07994506,-0.00225500
75825,20010830,EOG,-0.01925500,-0.01700000,-0.00225500,0.00774530,0.00916360,-0.07886184,-0.00273300
75825,20010831,EOG,0.00126700,0.00400000,-0.00273300,0.02337129,0.03891170,-0.01523477,0.02883000
75825,20010904,EOG,0.02783000,-0.00100000,0.02883000,0.00338995,0.01374071,-0.04659900,-0.02207700
75825,20010905,EOG,-0.02307700,-0.00100000,-0.02207700,0.05431524,0.04851098,0.01695078,0.04814200
75825,20010906,EOG,0.02614200,-0.02200000,0.04814200,0.04677188,0.07318497,0.04767490,0.02176200
75825,20010907,EOG,0.00276200,-0.01900000,0.02176200,0.06569187,0.07185887,0.07822745,-0.00416300
75825,20010910,EOG,0.00183700,0.00600000,-0.00416300,0.00591572,0.02980618,0.06546844,-0.01088400
75825,20010917,EOG,-0.05988400,-0.04900000,-0.01088400,-0.06360747,0.00069688,0.01322508,-0.05184900
75825,20010918,EOG,-0.05784900,-0.00600000,-0.05184900,-0.07193563,-0.05578608,-0.01191273,-0.01504500
75825,20010919,EOG,-0.03104500,-0.01600000,-0.01504500,-0.04137301,-0.05305368,0.01147507,0.02388000
75825,20010920,EOG,-0.00712000,-0.03100000,0.02388000,0.04392416,-0.01680879,0.04613939,0.03692800
75825,20010921,EOG,0.01792800,-0.01900000,0.03692800,-0.02112511,-0.08367491,-0.05042722,-0.08267700
75825,20010924,EOG,-0.04367700,0.03900000,-0.08267700,-0.07217523,-0.06063323,-0.05467906,-0.02668000
75825,20010925,EOG,-0.01768000,0.00900000,-0.02668000,-0.10475080,-0.04318773,-0.09255152,0.00387500
75825,20010926,EOG,-0.00112500,-0.00500000,0.00387500,-0.00947394,-0.05570042,-0.10243730,0.01377500
75825,20010927,EOG,0.02477500,0.01100000,0.01377500,0.05666385,-0.05876330,-0.06908754,0.03770700
75825,20010928,EOG,0.05970700,0.02200000,0.03770700,0.02888454,0.00489299,-0.08230743,-0.02185100
75825,20011001,EOG,-0.02385100,-0.00200000,-0.02185100,0.02641227,0.04528245,-0.02129879,0.01137100
75825,20011002,EOG,0.02337100,0.01200000,0.01137100,-0.00909085,0.04443785,-0.00382592,0.00214500
75825,20011003,EOG,0.02214500,0.02000000,0.00214500,0.07180721,0.08919251,0.02877942,0.05548700
75825,20011004,EOG,0.05348700,-0.00200000,0.05548700,0.06893154,0.05762640,-0.00181376,0.00924700
75825,20011005,EOG,0.01124700,0.00200000,0.00924700,0.09195844,0.10987483,0.11929626,0.02547700
75825,20011008,EOG,0.01747700,-0.00800000,0.02547700,0.04408404,0.10568027,0.16010596,0.00906000
75825,20011009,EOG,0.00406000,-0.00500000,0.00906000,0.07065254,0.14124475,0.20149101,0.03454300
75825,20011010,EOG,0.05754300,0.02300000,0.03454300,0.02805907,0.06496550,0.16565104,-0.01558800
75825,20011011,EOG,-0.00058800,0.01500000,-0.01558800,0.02470118,0.06094900,0.12506549,0.00588300
75825,20011012,EOG,0.00088300,-0.00500000,0.00588300,-0.03908097,0.00280153,0.11590058,-0.02946100
75825,20011015,EOG,-0.03146100,-0.00200000,-0.02946100,0.00449613,0.02332755,0.13567920,0.02917000
75825,20011016,EOG,0.03617000,0.00700000,0.02917000,0.01473629,0.00524598,0.14667207,0.01606700
75825,20011017,EOG,-0.00293300,-0.01900000,0.01606700,0.02824261,0.00423556,0.06784366,-0.01612500
75825,20011018,EOG,-0.02412500,-0.00800000,-0.01612500,0.01934269,0.01802793,0.07938943,0.02002300
75825,20011019,EOG,0.02502300,0.00500000,0.02002300,-0.00014563,0.04565275,0.04976501,-0.00352900
75825,20011022,EOG,0.01147100,0.01500000,-0.00352900,0.01909319,0.01843659,0.04261407,0.00238300
75825,20011023,EOG,-0.00261700,-0.00500000,0.00238300,0.01625175,0.01962397,0.02492401,0.01720100
75825,20011024,EOG,0.01720100,0.00000000,0.01720100,0.06376526,0.08296588,0.08544584,0.04332300
75825,20011025,EOG,0.05732300,0.01400000,0.04332300,0.08106894,0.08066344,0.09927342,0.01795700
75825,20011026,EOG,0.02195700,0.00400000,0.01795700,0.09293465,0.11370014,0.16398437,0.02957000
75825,20011029,EOG,0.00557000,-0.02400000,0.02957000,0.00124349,0.06058650,0.07896738,-0.04446100
75825,20011030,EOG,-0.06146100,-0.01700000,-0.04446100,-0.02121135,0.03702667,0.05717443,-0.00590200
75825,20011031,EOG,-0.00590200,-0.00000000,-0.00590200,-0.05678183,-0.01033858,0.07025654,-0.00603600
75825,20011101,EOG,0.01696400,0.02300000,-0.00603600,-0.05417378,-0.06717641,0.00491981,-0.04164300
75825,20011102,EOG,-0.03864300,0.00300000,-0.04164300,-0.08397321,-0.13036890,-0.02742634,-0.03568900
75825,20011105,EOG,-0.02168900,0.01400000,-0.03568900,-0.08539708,-0.09876015,-0.03846384,-0.00820100
75825,20011106,EOG,0.00679900,0.01500000,-0.00820100,-0.00587945,-0.05541615,-0.01719420,0.03881900
75825,20011107,EOG,0.03581900,-0.00300000,0.03881900,0.03036050,-0.04905160,-0.05849009,-0.00058300
75825,20011108,EOG,0.00141700,0.00200000,-0.00058300,0.07387581,0.02847349,-0.04309013,0.03423000
75825,20011109,EOG,0.03623000,0.00200000,0.03423000,0.02124623,0.05312517,-0.08478306,-0.01193100
75825,20011112,EOG,-0.01393100,-0.00200000,-0.01193100,0.00223220,0.04133574,-0.06096507,-0.01955400
75825,20011113,EOG,-0.00055400,0.01900000,-0.01955400,-0.09001564,-0.05907463,-0.11561929,-0.05937300
75825,20011114,EOG,-0.05737300,0.00200000,-0.05937300,-0.14145024,-0.12225392,-0.17021216,-0.06627500
75825,20011115,EOG,-0.06527500,0.00100000,-0.06627500,-0.09284279,-0.12293782,-0.10119856,0.03256900
75825,20011116,EOG,0.02956900,-0.00300000,0.03256900,-0.04602318,-0.12300034,-0.07652401,-0.01038900
75825,20011119,EOG,0.00061100,0.01100000,-0.01038900,0.08244809,-0.04937131,-0.01080175,0.05860300
75825,20011120,EOG,0.05160300,-0.00700000,0.05860300,0.04967600,0.01221234,-0.04711894,0.00151600
75825,20011121,EOG,-0.00348400,-0.00500000,0.00151600,0.07308621,0.09752188,-0.03546424,0.01189300
75825,20011123,EOG,0.02389300,0.01200000,0.01189300,-0.00833522,0.04017903,-0.08910156,-0.02136700
75825,20011126,EOG,-0.01536700,0.00600000,-0.02136700,-0.00336931,0.05702903,-0.07112200,0.00642200
75825,20011127,EOG,-0.00057800,-0.00700000,0.00642200,-0.00288906,0.01018336,-0.03904776,0.01192700
75825,20011128,EOG,-0.00607300,-0.01800000,0.01192700,0.03188561,0.02238253,0.03483157,0.01356700
75825,20011129,EOG,0.02356700,0.01000000,0.01356700,0.02073905,0.00565107,0.10277332,-0.00468500
75825,20011130,EOG,-0.00568500,-0.00100000,-0.00468500,0.04708865,0.06501892,0.10794934,0.03773100
75825,20011203,EOG,0.02973100,-0.00800000,0.03773100,0.05437999,0.08095373,0.14225994,0.02059200
75825,20011204,EOG,0.03359200,0.01300000,0.02059200,0.09106320,0.10167389,0.11201967,0.02849700
75825,20011205,EOG,0.05049700,0.02200000,0.02849700,0.03944660,0.07431525,0.09907254,-0.01004000
75825,20011206,EOG,-0.01304000,-0.00300000,-0.01004000,0.01419768,0.07517741,0.08057508,-0.00339900
75825,20011207,EOG,-0.01139900,-0.00800000,-0.00339900,-0.01794474,0.02966183,0.09638831,-0.00496400
75825,20011210,EOG,-0.02096400,-0.01600000,-0.00496400,-0.03019416,-0.01391940,0.06528975,-0.02269600
75825,20011211,EOG,-0.02569600,-0.00300000,-0.02269600,-0.04629935,-0.05823669,0.03238401,-0.02005500
75825,20011212,EOG,-0.02005500,0.00000000,-0.02005500,-0.03832894,-0.04519330,0.02157967,0.00338400
75825,20011213,EOG,-0.01261600,-0.01600000,0.00338400,0.00535553,-0.02170630,0.04911074,0.02255400
75825,20011214,EOG,0.02555400,0.00300000,0.02255400,0.00682328,-0.03558676,-0.00743180,-0.01885900
75825,20011217,EOG,-0.00885900,0.01000000,-0.01885900,0.02060375,0.00317084,-0.01088601,0.01686000
75825,20011218,EOG,0.02486000,0.00800000,0.01686000,0.01650944,0.04300201,-0.01964741,0.01853000
75825,20011219,EOG,0.02453000,0.00600000,0.01853000,0.03317046,0.03717571,-0.01213349,-0.00237500
75825,20011220,EOG,-0.01037500,-0.00800000,-0.00237500,0.02040555,0.01842390,-0.00470272,0.00433300
75825,20011221,EOG,0.00833300,0.00400000,0.00433300,0.01254485,0.04897896,0.01099263,0.01066400
75825,20011224,EOG,0.01066400,-0.00000000,0.01066400,0.04037064,0.05700816,0.06065206,0.02475200
75825,20011226,EOG,0.02875200,0.00400000,0.02475200,0.02789508,0.02976026,0.07466309,-0.00776900
75825,20011227,EOG,-0.00076900,0.00700000,-0.00776900,0.02128570,0.03698994,0.07691871,0.00418500
75825,20011228,EOG,0.00718500,0.00300000,0.00418500,0.00390981,0.03974882,0.05975592,0.00743300
75825,20011231,EOG,-0.00356700,-0.01100000,0.00743300,-0.02050022,-0.00417574,0.04499420,-0.03208000
75825,20020102,EOG,-0.02608000,0.00600000,-0.03208000,-0.05229622,-0.05625605,-0.00199458,-0.02842800
75825,20020103,EOG,-0.01942800,0.00900000,-0.02842800,-0.05489488,-0.04322094,-0.01466225,0.00578100
75825,20020104,EOG,0.01178100,0.00600000,0.00578100,-0.00817641,-0.03264230,0.00269132,0.01473200
75825,20020107,EOG,0.00873200,-0.00600000,0.01473200,0.01420968,-0.04624274,-0.00803086,-0.00623100
75825,20020108,EOG,-0.01023100,-0.00400000,-0.00623100,0.00725139,-0.01539337,-0.01964179,-0.00109600
75825,20020109,EOG,-0.00609600,-0.00500000,-0.00109600,-0.01824394,0.00186672,-0.05401688,-0.01113300
75825,20020110,EOG,-0.01013300,0.00100000,-0.01113300,-0.04268937,-0.03434275,-0.07553770,-0.03114000
75825,20020111,EOG,-0.04014000,-0.00900000,-0.03114000,-0.06337186,-0.06952409,-0.09942004,-0.02290800
75825,20020114,EOG,-0.02890800,-0.00600000,-0.02290800,-0.04528951,-0.05662170,-0.10031053,0.00860700
75825,20020115,EOG,0.01560700,0.00700000,0.00860700,-0.01976904,-0.06001028,-0.07412087,-0.00536800
75825,20020116,EOG,-0.02136800,-0.01600000,-0.00536800,-0.02859233,-0.07963509,-0.07730443,-0.03183400
75825,20020117,EOG,-0.02183400,0.01000000,-0.03183400,-0.05085400,-0.06462800,-0.09475623,-0.01529800
75825,20020118,EOG,-0.02529800,-0.01000000,-0.01529800,-0.04093621,-0.03769066,-0.10261183,0.00547300
75825,20020122,EOG,-0.00152700,-0.00700000,0.00547300,0.00817142,-0.02842173,-0.08223349,0.01860500
75825,20020123,EOG,0.02660500,0.00800000,0.01860500,0.03749375,-0.01096232,-0.07035409,0.01297900
75825,20020124,EOG,0.01697900,0.00400000,0.01297900,0.03496738,0.02404580,-0.05751764,0.00280800
75825,20020125,EOG,0.00380800,0.00100000,0.00280800,-0.01691963,0.00687070,-0.05869019,-0.03209800
75825,20020128,EOG,-0.03209800,-0.00000000,-0.03209800,-0.03641170,-0.00690840,-0.04361148,-0.00808200
75825,20020129,EOG,-0.03708200,-0.02900000,-0.00808200,-0.02262924,-0.00752836,-0.03526861,0.01805600
75825,20020130,EOG,0.03005600,0.01200000,0.01805600,0.02732900,-0.00278302,-0.01371066,0.01813100
75825,20020131,EOG,0.03313100,0.01500000,0.01813100,0.02165053,-0.01959065,0.00383394,-0.01418300
75825,20020201,EOG,-0.02118300,-0.00700000,-0.01418300,0.02064568,0.02952576,0.03653907,0.01718500
75825,20020204,EOG,-0.00781500,-0.02500000,0.01718500,0.00186371,0.03766525,0.02994696,-0.00115000
75825,20020205,EOG,-0.00515000,-0.00400000,-0.00115000,0.01729285,0.02072217,0.01298428,0.00143200
75825,20020206,EOG,-0.00456800,-0.00600000,0.00143200,-0.02370948,-0.02007208,-0.02264345,-0.02422500
75825,20020207,EOG,-0.02722500,-0.00300000,-0.02422500,-0.02567626,-0.00927520,-0.02814095,-0.00273600
75825,20020208,EOG,0.01226400,0.01500000,-0.00273600,-0.01449739,-0.01406798,0.01599470,0.01333800
75825,20020211,EOG,0.02733800,0.01400000,0.01333800,-0.00622499,-0.02928376,0.00815469,-0.01626000
75825,20020212,EOG,-0.02026000,-0.00400000,-0.01626000,-0.00948113,-0.03713216,-0.01550491,-0.00598800
75825,20020213,EOG,0.00401200,0.01000000,-0.00598800,-0.00667020,0.00383304,-0.01715388,0.01583300
75825,20020214,EOG,0.01383300,-0.00200000,0.01583300,0.01082315,0.00748452,-0.00209676,0.00099400
75825,20020215,EOG,-0.01000600,-0.01100000,0.00099400,0.04064614,0.01840043,0.00473111,0.02420700
75825,20020219,EOG,0.00520700,-0.01900000,0.02420700,-0.00016504,0.00959173,-0.01957580,-0.02557800
75825,20020220,EOG,-0.01157800,0.01400000,-0.02557800,0.04139680,0.05786304,0.02170591,0.04281900
75825,20020221,EOG,0.02681900,-0.01600000,0.04281900,0.03080537,0.05573934,0.06154789,0.01331500
75825,20020222,EOG,0.02131500,0.00800000,0.01331500,0.06549015,0.06389219,0.07232272,0.00727900
75825,20020225,EOG,0.02527900,0.01800000,0.00727900,0.01318352,0.03098321,0.04958847,-0.00745400
75825,20020226,EOG,-0.00745400,-0.00000000,-0.00745400,-0.00389051,0.05377658,0.06352798,-0.00346600
75825,20020227,EOG,-0.00346600,0.00000000,-0.00346600,0.01188797,0.03337414,0.09337208,0.02300000
75825,20020228,EOG,0.02000000,-0.00300000,0.02300000,-0.00462207,-0.00507420,0.05263937,-0.02413700
75825,20020301,EOG,-0.00113700,0.02300000,-0.02413700,-0.00452765,-0.01580073,0.04952384,-0.00335300
75825,20020304,EOG,0.01564700,0.01900000,-0.00335300,-0.01468045,0.00522650,0.03748889,0.01288200
75825,20020305,EOG,0.00588200,-0.00700000,0.01288200,0.05261332,0.05248431,0.11214896,0.04180900
75825,20020306,EOG,0.05680900,0.01500000,0.04180900,0.08829399,0.06152079,0.09991785,0.03140500
75825,20020307,EOG,0.02740500,-0.00400000,0.03140500,0.06793018,0.07931888,0.07673177,-0.00676900
75825,20020308,EOG,-0.00076900,0.00600000,-0.00676900,0.03559906,0.09324752,0.07943487,0.01060400
75825,20020311,EOG,0.01360400,0.00300000,0.01060400,0.00736296,0.08334915,0.09177548,0.00351900
75825,20020312,EOG,0.00151900,-0.00200000,0.00351900,0.03134673,0.05659778,0.11437141,0.01708000
75825,20020313,EOG,0.00708000,-0.01000000,0.01708000,0.00942291,0.01330089,0.07600778,-0.01105100
75825,20020314,EOG,-0.01205100,-0.00100000,-0.01105100,-0.00747367,0.00656121,0.08666132,-0.01354100
75825,20020315,EOG,-0.00254100,0.01100000,-0.01354100,-0.00772312,0.01298491,0.10732110,0.01705100
75825,20020318,EOG,0.01605100,-0.00100000,0.01705100,0.02205795,0.02796329,0.11438741,0.01831700
75825,20020319,EOG,0.02231700,0.00400000,0.01831700,0.04311634,0.01825852,0.07558009,0.00766100
75825,20020320,EOG,-0.00833900,-0.01600000,0.00766100,0.04193479,0.04594473,0.05966722,0.01580900
75825,20020321,EOG,0.01780900,0.00200000,0.01580900,0.00301517,0.03822001,0.04496710,-0.02005800
75825,20020322,EOG,-0.02405800,-0.00400000,-0.02005800,0.00337504,0.02883859,0.04173388,0.00802800
75825,20020325,EOG,-0.00697200,-0.01500000,0.00802800,-0.03190382,-0.00915253,0.01777615,-0.02054400
75825,20020326,EOG,-0.01454400,0.00600000,-0.02054400,0.01683428,0.01207181,0.03040017,0.02986000
75825,20020327,EOG,0.03486000,0.00500000,0.02986000,0.00399837,-0.00820291,0.03708470,-0.00470500
75825,20020328,EOG,-0.00270500,0.00200000,-0.00470500,0.04717682,0.03376788,0.07265077,0.02146300
75825,20020401,EOG,0.02046300,-0.00100000,0.02146300,0.04882674,0.05850259,0.08742578,0.03171100
75825,20020402,EOG,0.02271100,-0.00900000,0.03171100,0.03345113,0.05907608,0.04791274,-0.01882100
75825,20020403,EOG,-0.02882100,-0.01000000,-0.01882100,-0.02266028,-0.00665625,0.00517144,-0.03505500
75825,20020404,EOG,-0.03405500,0.00100000,-0.03505500,-0.06077855,-0.01044374,-0.01831764,-0.00858400
75825,20020405,EOG,-0.01158400,-0.00300000,-0.00858400,-0.02139912,-0.00910896,0.02374116,0.02296800
75825,20020408,EOG,0.02496800,0.00200000,0.02296800,-0.00912578,-0.06102246,-0.00725954,-0.02282900
75825,20020409,EOG,-0.02982900,-0.00700000,-0.02282900,0.01597927,-0.02824168,0.02976506,0.01667100
75825,20020410,EOG,0.02767100,0.01100000,0.01667100,0.01519861,0.02921407,0.02200905,0.02200500
75825,20020411,EOG,-0.00199500,-0.02400000,0.02200500,-0.01823990,-0.01872561,-0.02844612,-0.05596300
75825,20020412,EOG,-0.04896300,0.00700000,-0.05596300,-0.00336730,-0.01009083,-0.01872383,0.03166600
75825,20020415,EOG,0.02366600,-0.00800000,0.03166600,-0.05037604,-0.01192967,-0.07253255,-0.02505500
75825,20020416,EOG,-0.00205500,0.02300000,-0.02505500,0.04269703,0.00640231,-0.02186516,0.03520500
75825,20020417,EOG,0.03320500,-0.00200000,0.03520500,0.02424969,-0.00229785,0.02744857,0.01370600
75825,20020418,EOG,0.01270600,-0.00100000,0.01370600,0.06532210,0.07346352,0.05228984,0.01523600
75825,20020419,EOG,0.01623600,0.00100000,0.01523600,0.04489634,0.05626765,0.04435893,0.01572600
75825,20020422,EOG,0.00072600,-0.01500000,0.01572600,0.04576036,0.09622831,0.08422843,0.01470800
75825,20020423,EOG,0.00870800,-0.00600000,0.01470800,0.02050070,0.04943820,0.05575179,-0.00954700
75825,20020424,EOG,-0.01654700,-0.00700000,-0.00954700,0.02533305,0.05628898,0.05498921,0.02053200
75825,20020425,EOG,0.01853200,-0.00200000,0.02053200,0.03317198,0.06314159,0.13887061,0.02261900
75825,20020426,EOG,0.00861900,-0.01400000,0.02261900,0.05263500,0.05706129,0.11469871,0.00952500
75825,20020429,EOG,-0.00047500,-0.01000000,0.00952500,0.03179639,0.04237418,0.13959491,-0.00055100
75825,20020430,EOG,0.01044900,0.01100000,-0.00055100,0.00030840,0.04402793,0.09411227,-0.00876500
75825,20020501,EOG,0.00023500,0.00900000,-0.00876500,0.00782638,0.04046782,0.09752094,0.01703800
75825,20020502,EOG,0.01503800,-0.00200000,0.01703800,0.03175987,0.04112751,0.10494651,0.02319400
75825,20020503,EOG,0.01319400,-0.01000000,0.02319400,0.02276394,0.01388415,0.07056087,-0.01641200
75825,20020506,EOG,-0.03541200,-0.01900000,-0.01641200,0.01274234,0.02096841,0.06271221,0.00679000
75825,20020507,EOG,0.00379000,-0.00300000,0.00679000,-0.02230465,0.01808674,0.06293304,-0.01251600
75825,20020508,EOG,0.02548400,0.03800000,-0.01251600,-0.00775594,-0.00133669,0.03868047,-0.00225700
75825,20020509,EOG,-0.01725700,-0.01500000,-0.00225700,0.00368282,-0.00629686,0.03388615,0.01793700
75825,20020510,EOG,0.00093700,-0.01700000,0.01793700,0.01749080,0.01256274,0.02677228,0.00181900
75825,20020513,EOG,0.02081900,0.01900000,0.00181900,0.00046806,-0.01450365,0.00747994,-0.01962500
75825,20020514,EOG,0.00137500,0.02100000,-0.01962500,-0.03743146,-0.02088482,-0.00321573,-0.01894300
75825,20020515,EOG,-0.02494300,-0.00600000,-0.01894300,-0.02999811,-0.01011120,-0.01136488,0.00895900
75825,20020516,EOG,0.01595900,0.00700000,0.00895900,-0.03871383,-0.05791366,-0.06317415,-0.02855900
75825,20020517,EOG,-0.02055900,0.00800000,-0.02855900,0.00025175,-0.03830214,-0.02681712,0.02007500
75825,20020520,EOG,0.00707500,-0.01300000,0.02007500,-0.00197106,-0.01212665,-0.02678894,0.00655000
75825,20020521,EOG,-0.00445000,-0.01100000,0.00655000,0.03238606,0.01260210,-0.00846203,0.00576200
75825,20020522,EOG,0.01176200,0.00600000,0.00576200,0.00542124,-0.00321980,-0.01337225,-0.00697700
75825,20020523,EOG,0.00302300,0.01000000,-0.00697700,-0.01233481,0.01418593,-0.04268085,-0.01094800
75825,20020524,EOG,-0.02294800,-0.01200000,-0.01094800,-0.01656589,-0.00449738,-0.04208558,0.00117100
75825,20020528,EOG,-0.00782900,-0.00900000,0.00117100,-0.00336732,-0.00462347,-0.01648917,0.00647800
75825,20020529,EOG,0.00047800,-0.00600000,0.00647800,-0.01626292,-0.03349211,-0.02145623,-0.02400800
75825,20020530,EOG,-0.02700800,-0.00300000,-0.02400800,-0.01260803,-0.02185967,-0.02491438,0.00512400
75825,20020531,EOG,0.00712400,0.00200000,0.00512400,-0.01536678,-0.00785973,0.00579746,0.00329300
75825,20020603,EOG,-0.02170700,-0.02500000,0.00329300,0.00118888,-0.01599877,-0.02002332,-0.00723000
75825,20020604,EOG,-0.00723000,0.00000000,-0.00723000,-0.01889608,-0.03727770,-0.04123409,-0.01552900
75825,20020605,EOG,-0.00652900,0.00900000,-0.01552900,-0.01001076,-0.00164385,-0.03391025,0.01241700
75825,20020606,EOG,-0.00758300,-0.02000000,0.01241700,0.01240530,0.00831794,-0.01312742,0.01550000
75825,20020607,EOG,0.01350000,-0.00200000,0.01550000,-0.00953731,-0.03168613,-0.03793215,-0.03717900
75825,20020610,EOG,-0.03417900,0.00300000,-0.03717900,-0.02192848,-0.02445638,-0.03885321,-0.00017400
75825,20020611,EOG,-0.01717400,-0.01700000,-0.00017400,-0.04160613,-0.01427209,-0.04969279,-0.00488200
75825,20020612,EOG,0.00211800,0.00700000,-0.00488200,0.01012967,-0.01177585,-0.01296899,0.01528400
75825,20020613,EOG,0.00528400,-0.01000000,0.01528400,0.01989057,-0.01764826,-0.00896791,0.00935900
75825,20020614,EOG,0.00735900,-0.00200000,0.00935900,0.01925840,0.01391148,-0.01855961,-0.00604200
75825,20020617,EOG,0.02295800,0.02900000,-0.00604200,0.00094032,0.01172365,-0.01394310,-0.00253000
75825,20020618,EOG,-0.00153000,0.00100000,-0.00253000,0.00600423,0.03105094,0.01543114,0.01419000
75825,20020619,EOG,-0.00281000,-0.01700000,0.01419000,0.02294271,0.02708399,0.01450454,0.01146300
75825,20020620,EOG,-0.00153700,-0.01300000,0.01146300,0.03682137,0.02937254,0.01095774,0.01186900
75825,20020621,EOG,-0.00513100,-0.01700000,0.01186900,0.02743512,0.03869492,0.05281444,0.00425200
75825,20020624,EOG,0.00825200,0.00400000,0.00425200,0.03343819,0.05797013,0.07112322,0.01751200
75825,20020625,EOG,0.00051200,-0.01700000,0.01751200,0.02995402,0.05250283,0.08379688,0.00811200
75825,20020626,EOG,0.00511200,-0.00300000,0.00811200,0.00409833,0.02022042,0.04738299,-0.02181500
75825,20020627,EOG,-0.00381500,0.01800000,-0.02181500,0.00089476,0.02304313,0.05270618,0.01453100
75825,20020628,EOG,0.01353100,-0.00100000,0.01453100,-0.01139343,0.01400629,0.05172409,-0.00418900
75825,20020701,EOG,-0.02518900,-0.02100000,-0.00418900,0.00422296,-0.00885892,0.04748283,-0.00561500
75825,20020702,EOG,-0.02661500,-0.02100000,-0.00561500,-0.01179835,-0.01896800,0.03237842,-0.00228300
75825,20020703,EOG,0.00371700,0.00600000,-0.00228300,-0.02673991,-0.01622617,0.00389224,-0.01901500
75825,20020705,EOG,0.01798500,0.03700000,-0.01901500,-0.03786999,-0.04580207,-0.02412511,-0.01631900
75825,20020708,EOG,-0.02831900,-0.01200000,-0.01631900,-0.02062952,-0.02801780,-0.01395133,0.01403700
75825,20020709,EOG,-0.01096300,-0.02500000,0.01403700,0.00372076,-0.01616148,-0.02416240,0.00615500
75825,20020710,EOG,-0.02784500,-0.03400000,0.00615500,-0.00031438,-0.03388514,-0.05101570,-0.02090400
75825,20020711,EOG,-0.01390400,0.00700000,-0.02090400,-0.01477533,-0.01639595,-0.03122502,-0.00076800
75825,20020712,EOG,-0.00676800,-0.00600000,-0.00076800,-0.01280432,0.00727602,-0.03615280,0.00882700
75825,20020715,EOG,0.00482700,-0.00400000,0.00882700,0.02017599,0.00561023,-0.02113473,0.01234200
75825,20020716,EOG,-0.00565800,-0.01800000,0.01234200,0.01491650,-0.00658045,-0.02219890,-0.00628500
75825,20020717,EOG,-0.00028500,0.00600000,-0.00628500,0.02548461,0.03312633,-0.00117866,0.01960100
75825,20020718,EOG,-0.00739900,-0.02700000,0.01960100,0.02393289,0.04375252,0.02493488,0.01105000
75825,20020719,EOG,-0.02695000,-0.03800000,0.01105000,-0.00502351,0.00058794,0.00706239,-0.03506100
75825,20020722,EOG,-0.06806100,-0.03300000,-0.03506100,-0.01838283,-0.00604034,-0.00077581,0.00486900
75825,20020723,EOG,-0.02213100,-0.02700000,0.00486900,-0.02811042,0.00251053,-0.00366966,0.00345900
75825,20020724,EOG,0.06045900,0.05700000,0.00345900,-0.01849642,-0.04072603,-0.00860241,-0.02601200
75825,20020725,EOG,-0.03201200,-0.00600000,-0.02601200,-0.02034619,-0.05014510,-0.00439027,0.00410200
75825,20020726,EOG,0.02110200,0.01700000,0.00410200,-0.01975487,-0.01139813,-0.00955439,0.00398900
75825,20020729,EOG,0.05798900,0.05400000,0.00398900,0.00505431,-0.02079823,-0.02513120,-0.00312500
75825,20020730,EOG,0.00087500,0.00400000,-0.00312500,-0.01111698,-0.03501854,-0.02997412,-0.01116500
75825,20020731,EOG,-0.00116500,0.01000000,-0.01116500,-0.01423094,-0.00711479,-0.04941617,-0.00033000
75825,20020801,EOG,-0.03033000,-0.03000000,-0.00033000,0.00729491,0.00839353,-0.04277382,0.01878900
75825,20020802,EOG,-0.00421100,-0.02300000,0.01878900,0.01599721,0.00287304,-0.00746557,-0.00133700
75825,20020805,EOG,-0.03533700,-0.03400000,-0.00133700,0.02609950,0.01443016,-0.00379103,0.00913600
75825,20020806,EOG,0.03913600,0.03000000,0.00913600,0.00173176,0.01983514,-0.01294432,-0.00583900
75825,20020807,EOG,0.01416100,0.02000000,-0.00583900,0.00928224,0.02716947,0.02116568,0.00562100
75825,20020808,EOG,0.03862100,0.03300000,0.00562100,0.01202531,0.01992087,0.02917957,0.01173200
75825,20020809,EOG,0.01573200,0.00400000,0.01173200,0.03757165,0.04295010,0.04310975,0.01879900
75825,20020812,EOG,0.01379900,-0.00500000,0.01879900,0.00955393,0.00973992,0.02427129,-0.01994400
75825,20020813,EOG,-0.04194400,-0.02200000,-0.01994400,-0.03062006,-0.01425976,0.00682147,-0.02956200
75825,20020814,EOG,0.01043800,0.04000000,-0.02956200,-0.03626915,-0.00567767,0.02196804,0.01382500
75825,20020815,EOG,0.02582500,0.01200000,0.01382500,-0.03268866,-0.03367594,-0.01575521,-0.01618200
75825,20020816,EOG,-0.01818200,-0.00200000,-0.01618200,-0.02273730,-0.07275354,-0.03682133,-0.01972600
75825,20020819,EOG,0.00427400,0.02400000,-0.01972600,-0.04316895,-0.06081531,-0.05286790,-0.00784400
75825,20020820,EOG,-0.02184400,-0.01400000,-0.00784400,-0.03247550,-0.03557483,-0.05156275,-0.00487900
75825,20020821,EOG,0.00812100,0.01300000,-0.00487900,-0.00088582,-0.03727124,-0.04399007,0.01218000
75825,20020822,EOG,0.02618000,0.01400000,0.01218000,0.01384592,-0.01382327,-0.04778600,0.00646000
75825,20020823,EOG,-0.01654000,-0.02300000,0.00646000,0.02326197,0.01023796,-0.06254139,0.00454300
75825,20020826,EOG,0.01254300,0.00800000,0.00454300,0.03541990,0.04376155,-0.01690972,0.02469800
75825,20020827,EOG,0.01069800,-0.01400000,0.02469800,0.02143656,0.03971816,0.00521832,-0.00734800
75825,20020828,EOG,-0.02534800,-0.01800000,-0.00734800,-0.00372491,0.00692167,-0.02863380,-0.02086300
75825,20020829,EOG,-0.02086300,-0.00000000,-0.02086300,-0.00956251,0.01911237,0.00563702,0.01892900
75825,20020830,EOG,0.01692900,-0.00200000,0.01892900,0.00276156,0.01880818,0.02842986,0.00497400
75825,20020903,EOG,-0.03702600,-0.04200000,0.00497400,0.01036097,-0.01705521,0.02406853,-0.01352900
75825,20020904,EOG,0.00447100,0.01800000,-0.01352900,0.01768544,0.01541474,0.05355567,0.02638600
75825,20020905,EOG,0.01038600,-0.01600000,0.02638600,0.01553683,0.03884170,0.04404808,0.00209000
75825,20020906,EOG,0.01909000,0.01700000,0.00209000,0.01448777,0.00596362,0.02476215,-0.01432300
75825,20020909,EOG,-0.00432300,0.01000000,-0.01432300,0.00381941,0.01752092,0.03603692,0.01615500
75825,20020910,EOG,0.02315500,0.00700000,0.01615500,0.00944296,0.03916361,0.01940466,0.00763800
75825,20020911,EOG,0.00763800,-0.00000000,0.00763800,0.03322561,0.02145501,0.03642442,0.00955900
75825,20020912,EOG,-0.01544100,-0.02500000,0.00955900,0.01839711,0.02036694,0.05926119,0.00127700
75825,20020913,EOG,0.00427700,0.00300000,0.00127700,0.02221965,0.04637194,0.05186466,0.01149300
75825,20020916,EOG,0.01249300,0.00100000,0.01149300,0.00809295,0.02483329,0.04297390,-0.00439700
75825,20020917,EOG,-0.02439700,-0.02000000,-0.00439700,0.02420866,0.03452224,0.07387189,0.01764700
75825,20020918,EOG,0.01264700,-0.00500000,0.01764700,0.01377112,0.02612891,0.04728602,0.00133100
75825,20020919,EOG,-0.02866900,-0.03000000,0.00133100,0.01078590,0.01724114,0.03682135,-0.00784500
75825,20020920,EOG,-0.00584500,0.00200000,-0.00784500,0.01186223,0.02402556,0.06813064,0.01870300
75825,20020923,EOG,0.00470300,-0.01400000,0.01870300,-0.00332162,0.01466599,0.03771066,-0.01401200
75825,20020924,EOG,-0.03101200,-0.01700000,-0.01401200,0.02211013,0.01510534,0.04827435,0.01817600
75825,20020925,EOG,0.04317600,0.02500000,0.01817600,0.01495529,0.02607556,0.05192190,0.01152200
75825,20020926,EOG,0.02952200,0.01800000,0.01152200,0.06723486,0.06980672,0.08430711,0.03509300
75825,20020927,EOG,0.00309300,-0.03200000,0.03509300,0.07016720,0.07408147,0.09450368,0.02284700
75825,20020930,EOG,0.00784700,-0.01500000,0.02284700,0.02328076,0.05526974,0.06779160,-0.03610700
75825,20021001,EOG,0.00389300,0.04000000,-0.03610700,0.02288627,0.07090827,0.08442197,0.03480300
75825,20021002,EOG,0.01080300,-0.02400000,0.03480300,-0.00888024,0.04872934,0.07561054,-0.00845700
75825,20021003,EOG,-0.01945700,-0.01100000,-0.00845700,0.02467024,0.01303806,0.08118171,-0.00063800
75825,20021004,EOG,-0.02263800,-0.02200000,-0.00063800,-0.00065922,-0.00095542,0.07034531,0.00841900
75825,20021007,EOG,-0.01058100,-0.01900000,0.00841900,-0.02128461,0.00414788,0.05657608,-0.03000600
75825,20021008,EOG,-0.01300600,0.01700000,-0.03000600,-0.01820926,-0.02608699,0.03902687,0.00240300
75825,20021009,EOG,-0.02459700,-0.02700000,0.00240300,-0.06088029,-0.05108620,-0.00350577,-0.03440000
75825,20021010,EOG,0.00060000,0.03500000,-0.03440000,-0.05130814,-0.07221012,-0.05716275,-0.01949800
75825,20021011,EOG,0.01950200,0.03900000,-0.01949800,-0.00874138,-0.03746298,-0.03706992,0.04597200
75825,20021014,EOG,0.05297200,0.00700000,0.04597200,0.01196268,-0.02235655,-0.01657307,-0.01541800
75825,20021015,EOG,0.03158200,0.04700000,-0.01541800,0.04070419,-0.01533205,-0.04286318,0.00881200
75825,20021016,EOG,-0.01518800,-0.02400000,0.00881200,0.00625463,0.03515637,-0.02307174,0.01215000
75825,20021017,EOG,0.03415000,0.02200000,0.01215000,0.00901944,0.04180532,-0.03577462,-0.01185900
75825,20021018,EOG,-0.00585900,0.00600000,-0.01185900,-0.00457558,-0.01087784,-0.05127726,-0.00441000
75825,20021021,EOG,0.01259000,0.01700000,-0.00441000,-0.02037004,0.00047412,-0.02205180,-0.00407900
75825,20021022,EOG,-0.01507900,-0.01100000,-0.00407900,0.02786404,0.02860514,0.01524925,0.03651300
75825,20021023,EOG,0.04351300,0.00700000,0.03651300,0.03145005,0.01552740,0.05279692,0.00007100
75825,20021024,EOG,-0.01492900,-0.01500000,0.00007100,-0.02917060,-0.03765862,0.00100040,-0.06403400
75825,20021025,EOG,-0.04703400,0.01700000,-0.06403400,-0.05087358,-0.02063153,-0.03258552,0.01238700
75825,20021028,EOG,0.00438700,-0.00800000,0.01238700,-0.06510937,-0.03089647,-0.03072797,-0.01447800
75825,20021029,EOG,-0.02347800,-0.00900000,-0.01447800,0.02985539,-0.03453224,-0.00849617,0.03277300
75825,20021030,EOG,0.04277300,0.01000000,0.03277300,0.01601488,-0.03612518,-0.02123264,-0.00123900
75825,20021031,EOG,-0.00723900,-0.00600000,-0.00123900,0.03155015,0.02863105,-0.00982738,-0.00025700
75825,20021101,EOG,0.01674300,0.01700000,-0.00025700,-0.00343610,0.01421185,-0.00727039,-0.00189100
75825,20021104,EOG,0.00610900,0.00800000,-0.00189100,-0.01497386,0.01682600,-0.01588610,-0.01248800
75825,20021105,EOG,-0.00448800,0.00800000,-0.01248800,-0.01538083,-0.01707856,-0.05218574,-0.00077900
75825,20021106,EOG,0.00822100,0.00900000,-0.00077900,0.00579326,0.00375828,-0.03316264,0.01879200
75825,20021107,EOG,-0.00420800,-0.02300000,0.01879200,0.01724571,0.00313671,0.03165778,-0.00077300
75825,20021108,EOG,-0.00977300,-0.00900000,-0.00077300,0.03082058,0.01825590,0.03257990,0.01353100
75825,20021111,EOG,-0.00746900,-0.02100000,0.01353100,-0.00357186,0.01419841,0.03118968,-0.01660000
75825,20021112,EOG,-0.00860000,0.00800000,-0.01660000,-0.03057753,-0.01253328,-0.02909305,-0.02819200
75825,20021113,EOG,-0.02819200,-0.00000000,-0.02819200,-0.02083808,-0.00741859,-0.00381758,0.02576700
75825,20021114,EOG,0.05076700,0.02500000,0.02576700,-0.01217520,-0.01490545,-0.01165028,-0.00812400
75825,20021115,EOG,-0.00212400,0.00600000,-0.00812400,0.03801730,-0.00885011,0.01009184,0.01984300
75825,20021118,EOG,0.00984300,-0.01000000,0.01984300,0.02503277,0.02173684,0.03570049,0.01322000
75825,20021119,EOG,0.00922000,-0.00400000,0.01322000,0.05667792,0.07689688,0.05952254,0.02250400
75825,20021120,EOG,0.04150400,0.01900000,0.02250400,0.02698740,0.03937925,0.03152538,-0.00947100
75825,20021121,EOG,0.01152900,0.02100000,-0.00947100,-0.03544956,-0.00178039,-0.01703040,-0.04605800
75825,20021122,EOG,-0.04905800,-0.00300000,-0.04605800,-0.05231846,-0.01805013,-0.02758466,0.00403500
75825,20021125,EOG,0.00703500,0.00300000,0.00403500,-0.04464987,-0.03420222,-0.01337886,-0.00332100
75825,20021126,EOG,-0.02432100,-0.02100000,-0.00332100,-0.01203717,-0.06813871,0.00317805,-0.01288500
75825,20021127,EOG,0.01511500,0.02800000,-0.01288500,-0.00028889,-0.04277949,-0.00632186,0.01580000
75825,20021129,EOG,0.01280000,-0.00300000,0.01580000,0.01372836,0.01410847,0.01261677,0.01025400
75825,20021202,EOG,0.00825400,-0.00200000,0.01025400,0.05022227,0.03407430,0.01688968,0.02395400
75825,20021203,EOG,0.00895400,-0.01500000,0.02395400,0.02249934,0.02626067,-0.00850675,-0.01145200
75825,20021204,EOG,-0.01445200,-0.00300000,-0.01145200,0.03536853,0.06149279,-0.00678603,0.02332000
75825,20021205,EOG,0.01132000,-0.01200000,0.02332000,0.01970310,0.05398546,0.01018589,0.00799100
75825,20021206,EOG,0.01399100,0.00600000,0.00799100,0.04105910,0.05281130,0.06725629,0.00995800
75825,20021209,EOG,-0.01204200,-0.02200000,0.00995800,0.02398055,0.03554247,0.06975421,0.00580700
75825,20021210,EOG,0.01980700,0.01400000,0.00580700,0.01785317,0.04961847,0.07705505,0.00198800
75825,20021211,EOG,0.00298800,0.00100000,0.00198800,0.04262667,0.06081129,0.12361110,0.03404000
75825,20021212,EOG,0.03004000,-0.00400000,0.03404000,0.04086527,0.05675448,0.11103239,0.00504600
75825,20021213,EOG,-0.00795400,-0.01300000,0.00504600,0.02066357,0.02902796,0.08320376,-0.01865500
75825,20021216,EOG,0.00534500,0.02400000,-0.01865500,-0.02164347,0.01385548,0.04963634,-0.00843300
75825,20021217,EOG,-0.01643300,-0.00800000,-0.00843300,-0.03394347,0.00421104,0.05326827,-0.00739300
75825,20021218,EOG,-0.02039300,-0.01300000,-0.00739300,-0.00945396,-0.02238522,0.03606890,0.00624400
75825,20021219,EOG,-0.00175600,-0.00800000,0.00624400,0.02512104,-0.00192319,0.05519486,0.02695000
75825,20021220,EOG,0.03995000,0.01300000,0.02695000,0.03798978,0.02090094,0.05058009,0.00452300
75825,20021223,EOG,0.00652300,0.00200000,0.00452300,0.02798918,0.02614094,0.04019339,-0.00340100
75825,20021224,EOG,-0.00840100,-0.00500000,-0.00340100,-0.00100590,0.03198420,0.03586491,-0.00208400
75825,20021226,EOG,-0.00508400,-0.00300000,-0.00208400,-0.01286876,0.01748101,-0.00541055,-0.00760100
75825,20021227,EOG,-0.02360100,-0.01600000,-0.00760100,-0.01645528,-0.01536135,-0.01733767,-0.00699400
75825,20021230,EOG,-0.00199400,0.00500000,-0.00699400,-0.01763105,-0.02279081,-0.00244071,-0.00324600
75825,20021231,EOG,-0.00324600,0.00000000,-0.00324600,-0.01249910,-0.02212193,0.00417079,-0.00193800
75825,20030102,EOG,0.03106200,0.03300000,-0.00193800,-0.01177692,-0.02642146,0.00543705,-0.00631700
75825,20030103,EOG,-0.00631700,-0.00000000,-0.00631700,-0.03618725,-0.04680168,-0.02864229,-0.02689000
75825,20030106,EOG,-0.00489000,0.02200000,-0.02689000,-0.07339861,-0.08079614,-0.09428416,-0.04091200
75825,20030107,EOG,-0.04791200,-0.00700000,-0.04091200,-0.05614002,-0.06597480,-0.08677714,0.01090300
75825,20030108,EOG,-0.00309700,-0.01400000,0.01090300,-0.03234550,-0.06508383,-0.08740407,-0.00191500
75825,20030109,EOG,0.01708500,0.01900000,-0.00191500,-0.00034723,-0.06806178,-0.09467116,-0.00941700
75825,20030110,EOG,-0.00941700,-0.00000000,-0.00941700,-0.01539262,-0.04510702,-0.09239505,-0.00388200
75825,20030113,EOG,-0.00488200,-0.00100000,-0.00388200,-0.01415663,-0.00510696,-0.08652524,-0.00083600
75825,20030114,EOG,0.00516400,0.00600000,-0.00083600,0.02731837,0.01613478,-0.05100480,0.03198100
75825,20030115,EOG,0.01798100,-0.01400000,0.03198100,0.03528956,0.02169329,-0.04352748,0.00400000
75825,20030116,EOG,0.00000000,-0.00400000,0.00400000,0.04093140,0.03635484,-0.03163900,0.00541200
75825,20030117,EOG,-0.00858800,-0.01400000,0.00541200,0.00284141,0.03317514,-0.01166716,-0.00642000
75825,20030121,EOG,-0.02242000,-0.01600000,-0.00642000,0.00588410,0.04049671,0.03586748,0.00713300
75825,20030122,EOG,-0.00286700,-0.01000000,0.00713300,-0.00810476,0.00117022,0.01679068,-0.00895400
75825,20030123,EOG,0.00104600,0.01000000,-0.00895400,0.00381690,0.00269003,0.02314824,0.00550100
75825,20030124,EOG,-0.02349900,-0.02900000,0.00550100,-0.02408794,-0.02288470,0.01107449,-0.02143300
75825,20030127,EOG,-0.03743300,-0.01600000,-0.02143300,0.00052222,-0.00114741,0.03096862,0.01727800
75825,20030128,EOG,0.03027800,0.01300000,0.01727800,0.02296929,0.01925332,0.05880632,0.02832000
75825,20030129,EOG,0.03532000,0.00700000,0.02832000,0.05642789,0.03757512,0.03746513,0.01024000
75825,20030130,EOG,-0.01276000,-0.02300000,0.01024000,0.04839721,0.04293270,0.04323017,0.00942100
75825,20030131,EOG,0.02242100,0.01300000,0.00942100,0.01264208,0.05981214,0.03163999,-0.00706400
75825,20030203,EOG,-0.00206400,0.00500000,-0.00706400,0.04841595,0.08790269,0.08383717,0.04528200
75825,20030204,EOG,0.03128200,-0.01400000,0.04528200,0.03930844,0.05907496,0.07807897,0.00124000
75825,20030205,EOG,-0.00376000,-0.00500000,0.00124000,0.04575737,0.04887674,0.08568367,-0.00029100
75825,20030206,EOG,-0.00629100,-0.00600000,-0.00029100,-0.00019732,0.03722297,0.08023240,-0.00114200
75825,20030207,EOG,-0.01114200,-0.01000000,-0.00114200,0.00001506,0.04597602,0.10760520,0.00147500
75825,20030210,EOG,0.00947500,0.00800000,0.00147500,0.00449252,0.00538067,0.09185037,0.00419500
75825,20030211,EOG,-0.00380500,-0.00800000,0.00419500,-0.00972812,-0.01096355,0.04602777,-0.01526600
75825,20030212,EOG,-0.02826600,-0.01300000,-0.01526600,-0.00175220,-0.00144874,0.04615124,0.00960000
75825,20030213,EOG,0.00760000,-0.00200000,0.00960000,-0.01564296,-0.01000059,0.02735777,-0.00981700
75825,20030214,EOG,0.01118300,0.02100000,-0.00981700,-0.00425091,-0.01560653,0.03083511,-0.00408200
75825,20030218,EOG,0.01491800,0.01900000,-0.00408200,0.00095433,-0.00516811,0.00038783,0.01460300
75825,20030219,EOG,0.00760300,-0.00700000,0.01460300,0.03220251,0.03271986,0.02022804,0.02106600
75825,20030220,EOG,0.01106600,-0.01000000,0.02106600,0.03303988,0.01983515,0.01781177,-0.00305000
75825,20030221,EOG,0.00995000,0.01300000,-0.00305000,0.06347069,0.07551126,0.06521690,0.04460100
75825,20030224,EOG,0.02660100,-0.01800000,0.04460100,0.03906670,0.07554419,0.06025203,-0.00316100
75825,20030225,EOG,0.00383900,0.00700000,-0.00316100,0.06191245,0.08103870,0.07699128,0.02017000
75825,20030226,EOG,0.00717000,-0.01300000,0.02017000,-0.01015396,0.03176728,0.06620409,-0.02718700
75825,20030227,EOG,-0.01518700,0.01200000,-0.02718700,-0.01674394,0.02457273,0.04563649,-0.00981900
75825,20030228,EOG,-0.00481900,0.00500000,-0.00981900,-0.03834821,-0.02149106,0.05268227,-0.00168500
75825,20030303,EOG,-0.00968500,-0.00800000,-0.00168500,0.00353712,-0.00333611,0.07056173,0.01500000
75825,20030304,EOG,0.00000000,-0.01500000,0.01500000,0.01988881,-0.01701547,0.06330678,0.00662600
75825,20030305,EOG,0.01662600,0.01000000,0.00662600,0.03733057,0.02553464,0.05758442,0.01549300
75825,20030306,EOG,0.00649300,-0.00900000,0.01549300,0.01919962,0.03232636,0.05710835,-0.00322100
75825,20030307,EOG,0.00477900,0.00800000,-0.00322100,0.04411962,0.06604023,0.04400226,0.03170800
75825,20030310,EOG,0.00570800,-0.02600000,0.03170800,0.02343484,0.04571447,0.04143534,-0.00500500
75825,20030311,EOG,-0.01300500,-0.00800000,-0.00500500,0.00519589,0.01725924,0.00054134,-0.02148900
75825,20030312,EOG,-0.01748900,0.00400000,-0.02148900,-0.07546775,-0.04668218,-0.02125834,-0.04985000
75825,20030313,EOG,-0.01585000,0.03400000,-0.04985000,-0.09148248,-0.06332493,-0.03198491,-0.02083100
75825,20030314,EOG,-0.01883100,0.00200000,-0.02083100,-0.10890778,-0.13374359,-0.06775750,-0.03727300
75825,20030317,EOG,-0.00227300,0.03500000,-0.03727300,-0.04691790,-0.11949916,-0.07253952,0.01169200
75825,20030318,EOG,0.01569200,0.00400000,0.01169200,-0.03662382,-0.10923146,-0.08898526,-0.01049500
75825,20030319,EOG,-0.00149500,0.00900000,-0.01049500,0.01024820,-0.04897438,-0.09637265,0.00898100
75825,20030320,EOG,0.01098100,0.00200000,0.00898100,-0.05619933,-0.08359079,-0.14677913,-0.05410300
75825,20030321,EOG,-0.03110300,0.02300000,-0.05410300,-0.02111310,-0.02028703,-0.15297306,0.02328000
75825,20030324,EOG,-0.01172000,-0.03500000,0.02328000,-0.02619540,-0.02799035,-0.14761063,0.00398300
75825,20030325,EOG,0.01598300,0.01200000,0.00398300,0.01989495,-0.02473368,-0.13296499,-0.00743300
75825,20030326,EOG,-0.01243300,-0.00500000,-0.00743300,0.01492424,-0.01550896,-0.06415202,0.01844400
75825,20030327,EOG,0.01644400,-0.00200000,0.01844400,0.03020251,0.05746532,-0.02361867,0.01939700
75825,20030328,EOG,0.01339700,-0.00600000,0.01939700,0.04228800,0.03893378,0.01832441,0.00478000
75825,20030331,EOG,-0.01322000,-0.01800000,0.00478000,0.02962057,0.04039833,0.01221733,0.00544200
75825,20030401,EOG,0.01744200,0.01200000,0.00544200,-0.03508734,0.00265371,-0.02244002,-0.04537900
75825,20030402,EOG,-0.01937900,0.02600000,-0.04537900,-0.05132116,-0.02663800,-0.04165313,-0.01096200
75825,20030403,EOG,-0.01596200,-0.00500000,-0.01096200,-0.07710095,-0.06695696,-0.00991501,-0.02179500
75825,20030404,EOG,-0.01879500,0.00300000,-0.02179500,-0.04585500,-0.08629643,-0.04762513,-0.01385800
75825,20030407,EOG,-0.01285800,0.00100000,-0.01385800,-0.05091364,-0.10514330,-0.06606068,-0.01607500
75825,20030408,EOG,-0.01807500,-0.00200000,-0.01607500,-0.01335140,-0.04484715,-0.04287224,0.01643600
75825,20030409,EOG,0.00243600,-0.01400000,0.01643600,0.03425753,-0.00187639,-0.02831761,0.03450800
75825,20030410,EOG,0.04050800,0.00600000,0.03450800,0.04751459,0.01671516,-0.05019413,-0.00326700
75825,20030411,EOG,-0.00726700,-0.00400000,-0.00326700,0.01436350,0.01443331,-0.07297704,-0.01664700
75825,20030414,EOG,0.00235300,0.01900000,-0.01664700,-0.02464623,0.02649400,-0.08216968,-0.00469500
75825,20030415,EOG,0.00130500,0.00600000,-0.00469500,-0.02590078,0.00461332,-0.04118339,-0.00468800
75825,20030416,EOG,-0.01668800,-0.01200000,-0.00468800,0.00061288,-0.01944052,-0.02120847,0.01025300
75825,20030417,EOG,0.02625300,0.01600000,0.01025300,0.01958236,-0.00183766,0.01532138,0.01414500
75825,20030421,EOG,0.01214500,-0.00200000,0.01414500,0.01331386,0.00343742,0.01836927,-0.01153300
75825,20030422,EOG,0.01046700,0.02200000,-0.01153300,-0.02010491,-0.01481999,0.01194089,-0.02240100
75825,20030423,EOG,-0.01440100,0.00800000,-0.02240100,-0.04159236,-0.01791102,-0.01347861,-0.00763700
75825,20030424,EOG,-0.01563700,-0.00800000,-0.00763700,-0.02130793,-0.01904836,-0.03870201,0.00827100
75825,20030425,EOG,-0.00572900,-0.01400000,0.00827100,-0.01930128,-0.05333641,-0.05656134,-0.02035700
75825,20030428,EOG,-0.00235700,0.01800000,-0.02035700,-0.05076936,-0.07920567,-0.07839233,-0.03923000
75825,20030429,EOG,-0.03623000,0.00300000,-0.03923000,-0.04098638,-0.03949048,-0.05495614,0.01925100
75825,20030430,EOG,0.01825100,-0.00100000,0.01925100,-0.02908682,-0.04068431,-0.05942479,-0.00863100
75825,20030501,EOG,-0.00963100,-0.00100000,-0.00863100,0.00310002,-0.05734750,-0.07627866,-0.00743700
75825,20030502,EOG,0.00756300,0.01500000,-0.00743700,0.00050417,-0.02034749,-0.07376004,0.01660100
75825,20030505,EOG,0.01260100,-0.00400000,0.01660100,-0.01038388,0.00017031,-0.08039345,-0.01938500
75825,20030506,EOG,-0.01138500,0.00800000,-0.01938500,0.00024736,-0.01586202,-0.05519988,0.00312500
75825,20030507,EOG,-0.00187500,-0.00500000,0.00312500,-0.00696345,0.00214892,-0.03876693,0.00919500
75825,20030508,EOG,-0.00080500,-0.01000000,0.00919500,0.01695909,0.01408516,-0.04374781,0.00452800
75825,20030509,EOG,0.01852800,0.01400000,0.00452800,0.01850594,0.00178834,-0.01897951,0.00440000
75825,20030512,EOG,0.01740000,0.01300000,0.00440000,0.02691848,0.03941362,0.04026180,0.01725200
75825,20030513,EOG,0.01425200,-0.00300000,0.01725200,0.03472348,0.04928233,0.03310365,0.01245300
75825,20030514,EOG,0.00945300,-0.00300000,0.01245300,0.03068883,0.04088742,0.04334204,0.00060500
75825,20030515,EOG,0.00860500,0.00800000,0.00060500,0.02333176,0.04605804,0.06108929,0.01002600
75825,20030516,EOG,0.00702600,-0.00300000,0.01002600,0.02748777,0.05737280,0.06036010,0.01677700
75825,20030519,EOG,-0.00822300,-0.02500000,0.01677700,0.01133071,0.02431927,0.06395669,-0.01533200
75825,20030520,EOG,-0.01633200,-0.00100000,-0.01533200,0.04649955,0.05770804,0.10961035,0.04606400
75825,20030521,EOG,0.05006400,0.00400000,0.04606400,0.02641960,0.05337728,0.09734167,-0.00364800
75825,20030522,EOG,0.00535200,0.00900000,-0.00364800,0.05900415,0.05913930,0.10806130,0.01545300
75825,20030523,EOG,0.01645300,0.00100000,0.01545300,0.00895499,0.04007187,0.10061135,-0.00309900
75825,20030527,EOG,0.01690100,0.02000000,-0.00309900,0.00355376,0.04738324,0.07259975,-0.00878800
75825,20030528,EOG,-0.00678800,0.00200000,-0.00878800,-0.01390440,-0.00211135,0.05713511,-0.00189200
75825,20030529,EOG,-0.00589200,-0.00400000,-0.00189200,-0.00406651,0.00857229,0.06409634,0.00681100
75825,20030530,EOG,0.02181100,0.01500000,0.00681100,0.00999878,-0.00212335,0.05912555,0.00504900
75825,20030602,EOG,0.00904900,0.00400000,0.00504900,0.02231238,0.01114156,0.05291640,0.00994600
75825,20030603,EOG,0.01494600,0.00500000,0.00994600,-0.00466530,0.00022874,0.04930659,-0.01953100
75825,20030604,EOG,-0.00453100,0.01500000,-0.01953100,-0.01311797,-0.00123808,-0.00347387,-0.00331700
75825,20030605,EOG,0.00068300,0.00400000,-0.00331700,-0.02721647,-0.01250566,-0.00424439,-0.00436800
75825,20030606,EOG,-0.00636800,-0.00200000,-0.00436800,-0.00453363,-0.01421069,-0.01685559,0.00307300
75825,20030609,EOG,-0.00892700,-0.01200000,0.00307300,-0.00877136,-0.03153179,-0.02128392,-0.00761400
75825,20030610,EOG,0.00138600,0.00900000,-0.00761400,0.02516813,0.01726791,0.01811390,0.02989700
75825,20030611,EOG,0.04289700,0.01300000,0.02989700,-0.01274613,-0.01384323,-0.01567973,-0.03350800
75825,20030612,EOG,-0.03250800,0.00100000,-0.03350800,-0.02186200,-0.02615932,-0.03903250,-0.01674300
75825,20030613,EOG,-0.02674300,-0.01000000,-0.01674300,-0.08510564,-0.06636960,-0.08079042,-0.03679600
75825,20030616,EOG,-0.01479600,0.02200000,-0.03679600,-0.05850696,-0.06411598,-0.09536564,-0.00576800
75825,20030617,EOG,-0.00476800,0.00100000,-0.00576800,-0.05056773,-0.09802283,-0.08340706,-0.00829900
75825,20030618,EOG,-0.01029900,-0.00200000,-0.00829900,0.01956248,-0.03331959,-0.04693526,0.03387700
75825,20030619,EOG,0.01887700,-0.01500000,0.03387700,0.01383184,-0.02827359,-0.05388898,-0.01145100
75825,20030620,EOG,-0.01045100,0.00100000,-0.01145100,0.04814821,0.03379902,-0.03171340,0.02600200
75825,20030623,EOG,0.01200200,-0.01400000,0.02600200,0.00391435,0.02902081,-0.03438889,-0.01053900
75825,20030624,EOG,-0.00853900,0.00200000,-0.01053900,0.05089671,0.07311583,-0.02791275,0.03551200
75825,20030625,EOG,0.02751200,-0.00800000,0.03551200,-0.00918701,0.00531040,-0.02793758,-0.03358400
75825,20030626,EOG,-0.02258400,0.01100000,-0.03358400,0.00879243,0.02410096,-0.00415449,0.00738000
75825,20030627,EOG,-0.00262000,-0.01000000,0.00738000,-0.02473109,-0.00046797,0.03308802,0.00128400
75825,20030630,EOG,-0.00071600,-0.00200000,0.00128400,-0.01045381,-0.00910993,0.01986585,-0.01923300
75825,20030701,EOG,-0.01123300,0.00800000,-0.01923300,-0.03955027,-0.06506074,0.00687497,-0.02166900
75825,20030702,EOG,-0.00966900,0.01200000,-0.02166900,-0.02723126,-0.01839139,-0.01302958,0.01361400
75825,20030703,EOG,0.00561400,-0.00800000,0.01361400,-0.04980967,-0.06755172,-0.04308999,-0.04181600
75825,20030707,EOG,-0.02281600,0.01900000,-0.04181600,-0.03780044,-0.07847135,-0.07835984,-0.00970600
75825,20030708,EOG,-0.00670600,0.00300000,-0.00970600,-0.03388596,-0.04188751,-0.05074781,0.01775300
75825,20030709,EOG,0.01175300,-0.00600000,0.01775300,-0.00687265,-0.03448138,-0.09760749,-0.01468200
75825,20030710,EOG,-0.02768200,-0.01300000,-0.01468200,-0.00314233,-0.05400756,-0.07162993,-0.00593300
75825,20030711,EOG,0.00406700,0.01000000,-0.00593300,-0.05055320,-0.04279547,-0.10868978,-0.03055700
75825,20030714,EOG,-0.02455700,0.00600000,-0.03055700,-0.03817755,-0.03485468,-0.11130181,-0.00167200
75825,20030715,EOG,-0.00467200,-0.00300000,-0.00167200,-0.03951351,-0.05911104,-0.09944044,-0.00783800
75825,20030716,EOG,-0.01383800,-0.00600000,-0.00783800,0.03309465,-0.00347168,-0.03763737,0.04324200
75825,20030717,EOG,0.03124200,-0.01200000,0.04324200,0.04269670,0.00955452,-0.04467557,0.00725500
75825,20030718,EOG,0.01925500,0.01200000,0.00725500,0.05962175,0.04920197,0.00531882,0.00870300
75825,20030721,EOG,-0.00629700,-0.01500000,0.00870300,-0.00216751,0.03293230,-0.00288045,-0.01811200
75825,20030722,EOG,-0.00811200,0.01000000,-0.01811200,-0.01901938,0.03103852,-0.02984424,-0.00994500
75825,20030723,EOG,-0.00894500,0.00100000,-0.00994500,-0.03435224,-0.01871340,-0.02202631,-0.00666700
75825,20030724,EOG,-0.01366700,-0.00700000,-0.00666700,-0.01421354,-0.02331768,-0.01385749,0.00260800
75825,20030725,EOG,0.01960800,0.01700000,0.00260800,0.00090634,-0.02732360,0.02212219,0.00507700
75825,20030728,EOG,0.00307700,-0.00200000,0.00507700,-0.00890694,-0.02531894,0.00712419,-0.01626200
75825,20030729,EOG,-0.02326200,-0.00700000,-0.01626200,0.00096833,-0.00318791,0.02772826,0.01246900
75825,20030730,EOG,0.01046900,-0.00200000,0.01246900,-0.00267806,0.00499365,-0.01397536,0.00140300
75825,20030731,EOG,0.00440300,0.00300000,0.00140300,0.02602775,0.01433156,-0.00882095,0.01206300
75825,20030801,EOG,0.00206300,-0.01000000,0.01206300,-0.00864018,-0.01256172,-0.03942501,-0.02204300
75825,20030804,EOG,-0.01904300,0.00300000,-0.02204300,0.01845711,0.03230971,0.00683709,0.02875600
75825,20030805,EOG,0.01075600,-0.01800000,0.02875600,0.01668667,0.03012310,0.02686698,0.01019800
75825,20030806,EOG,0.01219800,0.00200000,0.01019800,0.05977797,0.04886266,0.05445292,0.01992300
75825,20030807,EOG,0.02692300,0.00700000,0.01992300,0.01627718,0.02278674,0.03700498,-0.01373800
75825,20030808,EOG,-0.00973800,0.00400000,-0.01373800,0.03106703,0.07145552,0.05709487,0.02473600
75825,20030811,EOG,0.02773600,0.00300000,0.02473600,0.02511494,0.05706098,0.09069674,0.01404300
75825,20030812,EOG,0.02404300,0.01000000,0.01404300,0.03843408,0.04502029,0.07614206,-0.00070800
75825,20030813,EOG,-0.00670800,-0.00600000,-0.00070800,-0.00238086,0.00841031,0.05843069,-0.01544200
75825,20030814,EOG,-0.00844200,0.00700000,-0.01544200,-0.00838485,0.03062892,0.05436522,0.00778400
75825,20030815,EOG,0.00778400,0.00000000,0.00778400,-0.01268662,0.00054172,0.07346860,-0.00489700
75825,20030818,EOG,0.00410300,0.00900000,-0.00489700,-0.01835193,-0.03431936,0.02062404,-0.02102900
75825,20030819,EOG,-0.01802900,0.00300000,-0.02102900,-0.01796865,-0.02575656,0.01840772,0.00812000
75825,20030820,EOG,0.00612000,-0.00200000,0.00812000,-0.00543913,-0.00257334,0.00587848,0.00770600
75825,20030821,EOG,0.01070600,0.00300000,0.00770600,0.03202701,0.00578633,0.03676239,0.01601800
75825,20030822,EOG,0.00601800,-0.01000000,0.01601800,0.01576988,0.00264551,0.00323901,-0.00793900
75825,20030825,EOG,-0.00693900,0.00100000,-0.00793900,0.00025991,0.01606571,-0.01842294,-0.00781900
75825,20030826,EOG,-0.00481900,0.00300000,-0.00781900,-0.01094138,0.01278866,-0.01300027,0.00484300
75825,20030827,EOG,0.00484300,0.00000000,0.00484300,0.00640462,0.01451825,0.01209696,0.00942200
75825,20030828,EOG,0.01542200,0.00600000,0.00942200,0.01560517,-0.00047887,0.00539053,0.00117000
75825,20030829,EOG,0.00617000,0.00500000,0.00117000,-0.00253395,-0.00560882,-0.00287507,-0.01305700
75825,20030902,EOG,0.00094300,0.01400000,-0.01305700,-0.01531542,-0.00095539,0.01557028,-0.00329300
75825,20030903,EOG,0.00070700,0.00400000,-0.00329300,-0.01891322,-0.00845214,0.00465510,-0.00247100
75825,20030904,EOG,-0.00047100,0.00200000,-0.00247100,-0.01575895,-0.02782206,-0.01342925,-0.01001900
75825,20030905,EOG,-0.01601900,-0.00600000,-0.01001900,-0.01254108,-0.02906473,-0.02997944,0.00005500
75825,20030908,EOG,0.01005500,0.01000000,0.00005500,-0.01663856,-0.02239109,-0.02851771,-0.00669500
75825,20030909,EOG,-0.01469500,-0.00800000,-0.00669500,-0.00378197,-0.01606408,-0.01746111,0.00285900
75825,20030910,EOG,-0.00914100,-0.01200000,0.00285900,-0.01865342,-0.02845327,-0.03746274,-0.01519700
75825,20030911,EOG,-0.01019700,0.00500000,-0.01519700,-0.01368905,-0.02029725,-0.04785306,-0.00150900
75825,20030912,EOG,0.00049100,0.00200000,-0.00150900,-0.01245029,-0.01596417,-0.04445626,0.00424500
75825,20030915,EOG,0.00024500,-0.00400000,0.00424500,0.00618707,-0.00626255,-0.02863317,0.00340200
75825,20030916,EOG,0.01740200,0.01400000,0.00340200,-0.00495305,-0.02174150,-0.03737477,-0.01241800
75825,20030917,EOG,-0.01541800,-0.00300000,-0.01241800,-0.00694335,-0.00413817,-0.03305490,0.00241500
75825,20030918,EOG,0.01541500,0.01300000,0.00241500,-0.00958121,-0.00198967,-0.02258416,0.00059000
75825,20030919,EOG,-0.00241000,-0.00300000,0.00059000,0.02274284,0.01356886,-0.00296615,0.01952200
75825,20030922,EOG,0.00652200,-0.01300000,0.01952200,0.00523761,-0.00486275,-0.01111706,-0.01487900
75825,20030923,EOG,-0.00887900,0.00600000,-0.01487900,0.03681334,0.04021954,0.01851868,0.03231700
75825,20030924,EOG,0.01331700,-0.01900000,0.03231700,0.00895606,0.02866821,0.02518693,-0.00833700
75825,20030925,EOG,-0.01433700,-0.00600000,-0.00833700,0.01523999,0.01972286,0.01810294,-0.00830300
75825,20030926,EOG,-0.01430300,-0.00600000,-0.00830300,-0.01942210,-0.00210863,0.01120942,-0.00286800
75825,20030929,EOG,0.00713200,0.01000000,-0.00286800,0.01898201,0.04246589,0.03754301,0.03029200
75825,20030930,EOG,0.01929200,-0.01100000,0.03029200,0.00692597,-0.01008565,0.03024002,-0.02080200
75825,20031001,EOG,0.00119800,0.02200000,-0.02080200,0.01945536,0.00795758,0.03705861,0.00948600
75825,20031002,EOG,0.01148600,0.00200000,0.00948600,-0.01433333,0.01387794,0.03398612,-0.00284900
75825,20031003,EOG,0.00615100,0.00900000,-0.00284900,-0.00046541,0.00942716,0.00710085,-0.00705700
75825,20031006,EOG,-0.00305700,0.00400000,-0.00705700,-0.01266070,-0.02437290,0.01964154,-0.00264200
75825,20031007,EOG,0.00235800,0.00500000,-0.00264200,-0.00797276,-0.00139761,-0.01163291,0.00170600
75825,20031008,EOG,-0.00329400,-0.00500000,0.00170600,-0.01205090,-0.02209825,-0.01454327,-0.01113800
75825,20031009,EOG,-0.00613800,0.00500000,-0.01113800,0.00690689,-0.00281422,0.01104512,0.01643900
75825,20031010,EOG,0.01543900,-0.00100000,0.01643900,-0.00110821,-0.00203609,0.00742265,-0.00629800
75825,20031013,EOG,0.00070200,0.00700000,-0.00629800,-0.00265370,-0.01210955,-0.03694646,-0.01264900
75825,20031014,EOG,-0.00864900,0.00400000,-0.01264900,-0.03700006,-0.03208780,-0.03393985,-0.01822100
75825,20031015,EOG,-0.02122100,-0.00300000,-0.01822100,-0.02103897,-0.01117933,-0.03345377,0.01002500
75825,20031016,EOG,0.01302500,0.00300000,0.01002500,-0.00436501,-0.02312128,-0.02605762,0.00404800
75825,20031017,EOG,-0.00595200,-0.01000000,0.00404800,0.00158369,-0.02907434,-0.03136879,-0.01242500
75825,20031020,EOG,-0.00742500,0.00500000,-0.01242500,0.00476941,-0.00370002,-0.01575252,0.01323700
75825,20031021,EOG,0.01423700,0.00100000,0.01323700,0.01627054,0.03028243,-0.00189797,0.01547600
75825,20031022,EOG,0.00047600,-0.01500000,0.01547600,0.02239881,0.01390893,0.00289275,-0.00632900
75825,20031023,EOG,-0.00332900,0.00300000,-0.00632900,0.01531982,0.01611193,-0.00711102,0.00619300
75825,20031024,EOG,0.00119300,-0.00500000,0.00619300,-0.01638925,0.01210372,-0.01692757,-0.01629900
75825,20031027,EOG,-0.01429900,0.00200000,-0.01629900,-0.02960154,-0.02021686,-0.02375902,-0.01959400
75825,20031028,EOG,-0.00459400,0.01500000,-0.01959400,-0.02615019,-0.02622142,0.00417224,0.00993000
75825,20031029,EOG,0.01093000,0.00100000,0.00993000,-0.01886777,-0.02888482,-0.01474788,-0.00909100
75825,20031030,EOG,-0.01009100,-0.00100000,-0.00909100,0.01956125,-0.01680770,-0.00044041,0.01881500
75825,20031031,EOG,0.02281500,0.00400000,0.01881500,0.00411639,-0.00569429,0.00674978,-0.00539000
75825,20031103,EOG,0.00261000,0.00800000,-0.00539000,0.01365807,0.01440269,-0.00624979,0.00026600
75825,20031104,EOG,-0.00473400,-0.00500000,0.00026600,-0.01358513,-0.00423847,-0.03054658,-0.00851200
75825,20031105,EOG,-0.00951200,-0.00100000,-0.00851200,-0.01417005,-0.00107904,-0.03029221,-0.00600000
75825,20031106,EOG,0.00000000,0.00600000,-0.00600000,-0.00710294,-0.01218400,-0.02909319,0.00740100
75825,20031107,EOG,0.00240100,-0.00500000,0.00740100,0.00623588,-0.00201733,-0.00769238,0.00480200
75825,20031110,EOG,-0.00119800,-0.00600000,0.00480200,0.01604052,0.00155536,0.01589012,0.00387800
75825,20031111,EOG,0.00287800,-0.00100000,0.00387800,0.01642965,0.01790567,0.01365932,0.00765100
75825,20031112,EOG,0.01865100,0.01100000,0.00765100,0.02358389,0.03590386,0.03521813,0.01173700
75825,20031113,EOG,0.01173700,-0.00000000,0.01173700,0.02530388,0.03404203,0.02159296,0.00568000
75825,20031114,EOG,-0.00232000,-0.00800000,0.00568000,0.01043068,0.02208764,0.01979105,-0.00679100
75825,20031117,EOG,-0.01279100,-0.00600000,-0.00679100,0.00913682,0.02857578,0.02995607,0.01041300
75825,20031118,EOG,0.00141300,-0.00900000,0.01041300,-0.00270230,0.01453924,0.03250779,-0.00635300
75825,20031119,EOG,0.00164700,0.00800000,-0.00635300,0.01259722,0.01128818,0.04676322,0.00847000
75825,20031120,EOG,0.00047000,-0.00800000,0.00847000,-0.01299084,-0.00928600,0.02403413,-0.01514500
75825,20031121,EOG,-0.01314500,0.00200000,-0.01514500,-0.03055427,-0.02647266,-0.00466665,-0.02408800
75825,20031124,EOG,-0.00808800,0.01600000,-0.02408800,-0.03673500,-0.03458720,-0.00601046,0.00255600
75825,20031125,EOG,0.00455600,0.00200000,0.00255600,-0.02543482,-0.03192467,-0.01713845,-0.00376100
75825,20031126,EOG,0.00023900,0.00400000,-0.00376100,-0.00025231,-0.03964090,-0.02762026,0.00095500
75825,20031128,EOG,0.00095500,-0.00000000,0.00095500,-0.00239104,-0.02430838,-0.03336136,0.00044500
75825,20031201,EOG,0.01144500,0.01100000,0.00044500,0.01470672,0.01355572,-0.01352766,0.01313700
75825,20031202,EOG,0.01013700,-0.00300000,0.01313700,0.00382474,0.00100689,-0.03394000,-0.00966900
75825,20031203,EOG,-0.01166900,-0.00200000,-0.00966900,0.05046653,0.05250377,0.01939007,0.04718400
75825,20031204,EOG,0.05218400,0.00500000,0.04718400,0.04400615,0.05862288,0.01795908,0.00710200
75825,20031205,EOG,-0.00089800,-0.00800000,0.00710200,0.05509219,0.05835813,0.03460337,0.00041200
75825,20031208,EOG,0.00741200,0.00700000,0.00041200,0.02104188,0.05842675,0.07349773,0.01345900
75825,20031209,EOG,0.00445900,-0.00900000,0.01345900,0.00912531,0.06370588,0.06540624,-0.00477100
75825,20031210,EOG,-0.00577100,-0.00100000,-0.00477100,0.00489758,0.01249960,0.06578861,-0.00385600
75825,20031211,EOG,0.00714400,0.01100000,-0.00385600,0.00185372,0.01602469,0.07627404,0.01052300
75825,20031212,EOG,0.01352300,0.00300000,0.01052300,-0.00058077,0.00814209,0.06684282,-0.00712300
75825,20031215,EOG,-0.01312300,-0.00600000,-0.00712300,0.00889744,0.00021771,0.05947301,0.00563300
75825,20031216,EOG,0.01263300,0.00700000,0.00563300,0.00897763,0.01590773,0.08155065,0.01060000
75825,20031217,EOG,0.01160000,0.00100000,0.01060000,0.02621770,0.02952918,0.04260602,0.00941900
75825,20031218,EOG,0.02141900,0.01200000,0.00941900,0.01412719,0.01248314,0.02906836,-0.00593100
75825,20031219,EOG,-0.00593100,-0.00000000,-0.00593100,-0.00999070,0.00640099,0.01477852,-0.01316300
75825,20031222,EOG,-0.00916300,0.00400000,-0.01316300,-0.03115960,-0.01179865,-0.01174419,-0.01224700
75825,20031223,EOG,-0.00924700,0.00300000,-0.01224700,-0.00819466,-0.00494271,0.01107856,0.01741100
75825,20031224,EOG,0.01541100,-0.00200000,0.01741100,0.00453046,-0.01463436,0.01442048,-0.00050400
75825,20031226,EOG,0.00149600,0.00200000,-0.00050400,0.01036050,-0.01547057,-0.00315854,-0.00666400
75825,20031229,EOG,0.00533600,0.01200000,-0.00666400,-0.01167348,-0.00664580,-0.00035185,-0.00445900
75825,20031230,EOG,-0.00445900,0.00000000,-0.00445900,-0.02853880,-0.01185045,-0.02391308,-0.01735500
75825,20031231,EOG,-0.01535500,0.00200000,-0.01735500,-0.02617080,-0.03352654,-0.03893970,-0.00458100
75825,20040102,EOG,-0.00758100,-0.00300000,-0.00458100,-0.01716692,-0.02845071,-0.04320634,0.00502300
75825,20040105,EOG,0.01702300,0.01200000,0.00502300,-0.00477502,-0.02664312,-0.04239571,-0.00507700
75825,20040106,EOG,-0.00407700,0.00100000,-0.00507700,-0.01481939,-0.03662278,-0.04366886,-0.01449700
75825,20040107,EOG,-0.01249700,0.00200000,-0.01449700,-0.02711486,-0.02701560,-0.03912675,-0.00761800
75825,20040108,EOG,-0.00261800,0.00500000,-0.00761800,-0.01044378,-0.01071345,-0.04438664,0.01162500
75825,20040109,EOG,0.00262500,-0.00900000,0.01162500,-0.01031768,-0.02969055,-0.05809488,-0.01438300
75825,20040112,EOG,-0.00938300,0.00500000,-0.01438300,0.00508574,-0.01688386,-0.04322426,0.00786300
75825,20040113,EOG,0.00286300,-0.00500000,0.00786300,0.00162494,0.00570230,-0.03119212,0.00825300
75825,20040114,EOG,0.01625300,0.00800000,0.00825300,-0.01633230,-0.01897003,-0.04579399,-0.03193900
75825,20040115,EOG,-0.03093900,0.00100000,-0.03193900,-0.01960670,-0.02610499,-0.03699606,0.00483300
75825,20040116,EOG,0.01183300,0.00700000,0.00483300,0.00381828,0.02020740,-0.01029981,0.03189100
75825,20040120,EOG,0.03089100,-0.00100000,0.03189100,0.01900145,-0.00582381,-0.02298852,-0.01763200
75825,20040121,EOG,-0.00963200,0.00800000,-0.01763200,0.01169468,-0.01612131,-0.01050529,-0.00218700
75825,20040122,EOG,-0.00518700,-0.00300000,-0.00218700,0.00067195,0.03790738,0.01804424,0.02068300
75825,20040123,EOG,0.01868300,-0.00200000,0.02068300,0.00775013,0.02197900,-0.00471221,-0.01072000
75825,20040126,EOG,0.00128000,0.01200000,-0.01072000,0.01272381,-0.00720666,0.01288123,0.00275800
75825,20040127,EOG,-0.00724200,-0.01000000,0.00275800,-0.00896702,0.00908249,0.00351575,-0.00123300
75825,20040128,EOG,-0.01523300,-0.01400000,-0.00123300,-0.01616506,-0.00666731,-0.02261301,-0.01807200
75825,20040129,EOG,-0.01307200,0.00500000,-0.01807200,-0.01606305,-0.02372390,0.01268510,0.00300000
75825,20040130,EOG,0.00000000,-0.00300000,0.00300000,-0.02342214,-0.02139405,-0.00058034,-0.00841500
75825,20040202,EOG,-0.00441500,0.00400000,-0.00841500,-0.00220956,-0.02122119,-0.02832671,0.00321300
75825,20040203,EOG,0.00421300,0.00100000,0.00321300,-0.01572745,-0.03053314,-0.02121607,-0.01054700
75825,20040204,EOG,-0.01854700,-0.00800000,-0.01054700,-0.04375857,-0.04894114,-0.05480532,-0.03687100
75825,20040205,EOG,-0.03487100,0.00200000,-0.03687100,-0.05172787,-0.05697713,-0.07905234,-0.00460800
75825,20040206,EOG,0.00839200,0.01300000,-0.00460800,-0.04100264,-0.04790460,-0.06751560,0.00068800
75825,20040209,EOG,-0.00231200,-0.00300000,0.00068800,0.00526841,-0.04246663,-0.06267411,0.00913300
75825,20040210,EOG,0.01413300,0.00500000,0.00913300,-0.01347028,-0.05545094,-0.08509427,-0.02310900
75825,20040211,EOG,-0.01210900,0.01100000,-0.02310900,0.01103540,0.00715905,-0.04319135,0.02512000
75825,20040212,EOG,0.02012000,-0.00500000,0.02512000,-0.00114453,0.00865427,-0.04887794,-0.00293500
75825,20040213,EOG,-0.00793500,-0.00500000,-0.00293500,0.01695685,0.00278716,-0.04600280,-0.00520100
75825,20040217,EOG,0.00479900,0.01000000,-0.00520100,-0.01430576,-0.01259282,-0.05492901,-0.00623400
75825,20040218,EOG,-0.01023400,-0.00400000,-0.00623400,-0.01473292,0.00713288,-0.04806540,-0.00335300
75825,20040219,EOG,-0.00735300,-0.00400000,-0.00335300,-0.01110062,-0.01910040,-0.01252347,-0.00163000
75825,20040220,EOG,-0.00463000,-0.00300000,-0.00163000,-0.00106307,-0.01238726,-0.00391133,0.00393000
75825,20040223,EOG,0.00093000,-0.00300000,0.00393000,0.01260763,0.00293513,0.00573306,0.01036400
75825,20040224,EOG,0.00836400,-0.00200000,0.01036400,0.01729200,0.01212945,-0.00043198,0.00291200
75825,20040225,EOG,0.00691200,0.00400000,0.00291200,0.01954256,0.02176367,0.02885491,0.00609400
75825,20040226,EOG,0.00709400,0.00100000,0.00609400,0.02011141,0.03466570,0.01469324,0.01090700
75825,20040227,EOG,0.01090700,0.00000000,0.01090700,0.02445921,0.03832295,0.02514380,0.00708200
75825,20040301,EOG,0.01708200,0.01000000,0.00708200,0.02832543,0.03781027,0.04028153,0.00997800
75825,20040302,EOG,0.00397800,-0.00600000,0.00997800,0.01832723,0.03583855,0.04820052,0.00108200
75825,20040303,EOG,0.00308200,0.00200000,0.00108200,-0.00914073,0.00875847,0.03088148,-0.02011600
75825,20040304,EOG,-0.01711600,0.00300000,-0.02011600,-0.00503424,0.01216792,0.04763601,0.01429800
75825,20040305,EOG,0.01629800,0.00200000,0.01429800,0.00676484,0.01786337,0.05683399,0.01283300
75825,20040308,EOG,0.00483300,-0.00800000,0.01283300,0.02068709,0.00153169,0.03914764,-0.00624300
75825,20040309,EOG,-0.01224300,-0.00600000,-0.00624300,0.00655432,0.00061964,0.03562886,0.00017000
75825,20040310,EOG,-0.01483000,-0.01500000,0.00017000,-0.00550542,0.02063452,0.02939614,0.00039700
75825,20040311,EOG,-0.01460300,-0.01500000,0.00039700,0.00706558,0.01337809,0.02546842,0.00669600
75825,20040312,EOG,0.01869600,0.01200000,0.00669600,0.03061618,0.02391393,0.04136305,0.02362400
75825,20040315,EOG,0.00962400,-0.01400000,0.02362400,0.02331296,0.02319249,0.02455664,-0.00733000
75825,20040316,EOG,-0.00133000,0.00600000,-0.00733000,0.01408620,0.02116667,0.02129434,-0.00245500
75825,20040317,EOG,0.00954500,0.01200000,-0.00245500,-0.01062511,0.02026300,0.04078319,-0.00075900
75825,20040318,EOG,-0.00175900,-0.00100000,-0.00075900,-0.00697059,0.00933465,0.02243058,-0.00375800
75825,20040319,EOG,-0.01475800,-0.01100000,-0.00375800,0.01295973,0.00344137,0.02713548,0.01769500
75825,20040322,EOG,0.00469500,-0.01300000,0.01769500,0.01051574,0.00745858,0.03030218,-0.00322800
75825,20040323,EOG,-0.00422800,-0.00100000,-0.00322800,-0.01489277,-0.01907738,0.00108601,-0.02928500
75825,20040324,EOG,-0.03128500,-0.00200000,-0.02928500,-0.04588756,-0.03152006,-0.01259098,-0.01346300
75825,20040325,EOG,0.00253700,0.01600000,-0.01346300,-0.03016133,-0.01555363,-0.00624772,0.01296500
75825,20040326,EOG,0.01196500,-0.00100000,0.01296500,-0.00049815,-0.03377578,-0.03012076,-0.00004000
75825,20040329,EOG,0.01296000,0.01300000,-0.00004000,0.02515220,-0.01905450,-0.01124358,0.01171300
75825,20040330,EOG,0.01571300,0.00400000,0.01171300,0.02739403,0.02733324,0.00637939,0.01514400
75825,20040331,EOG,0.01414400,-0.00100000,0.01514400,0.01555917,0.02914732,-0.00425163,-0.01131900
75825,20040401,EOG,-0.00631900,0.00500000,-0.01131900,0.00089217,0.01289663,-0.00334460,-0.00286000
75825,20040402,EOG,0.00614000,0.00900000,-0.00286000,-0.02281102,0.00418614,-0.03047779,-0.00843600
75825,20040405,EOG,-0.00043600,0.00800000,-0.00843600,-0.00604690,-0.00229685,-0.02174082,0.00527100
75825,20040406,EOG,0.00327100,-0.00200000,0.00527100,0.00389142,-0.01035706,0.01672390,0.00700000
75825,20040407,EOG,0.00000000,-0.00700000,0.00700000,0.03636233,0.02531244,0.05590801,0.02403900
75825,20040408,EOG,0.02303900,-0.00100000,0.02403900,0.04367640,0.04065923,0.05535023,0.01220800
75825,20040412,EOG,0.01720800,0.00500000,0.01220800,0.04005440,0.05231908,0.05796435,0.00376600
75825,20040413,EOG,-0.01023400,-0.01400000,0.00376600,0.02089506,0.05209625,0.05071569,0.00500900
75825,20040414,EOG,0.00400900,-0.00100000,0.00500900,0.02864706,0.06594667,0.05586628,0.02004400
75825,20040415,EOG,0.02104400,0.00100000,0.02004400,0.03323759,0.04941074,0.07621184,0.00777800
75825,20040416,EOG,0.01277800,0.00500000,0.00777800,0.04707195,0.05555810,0.09831070,0.01833300
75825,20040419,EOG,0.01933300,0.00100000,0.01833300,0.02039586,0.04579322,0.09911208,-0.00536200
75825,20040420,EOG,-0.02136200,-0.01600000,-0.00536200,-0.00822412,0.01929801,0.07183674,-0.02091200
75825,20040421,EOG,-0.01591200,0.00500000,-0.02091200,-0.02532529,0.00028114,0.06682298,0.00092500
75825,20040422,EOG,0.01492500,0.01400000,0.00092500,-0.02702565,-0.01413312,0.03487323,-0.00671900
75825,20040423,EOG,-0.00571900,0.00100000,-0.00671900,0.00873910,-0.01772099,0.03698202,0.01447700
75825,20040426,EOG,0.01047700,-0.00400000,0.01447700,0.03083048,0.01051869,0.05751358,0.02300500
75825,20040427,EOG,0.02500500,0.00200000,0.02300500,0.04535609,0.03997048,0.05985084,0.00785200
75825,20040428,EOG,-0.00614800,-0.01400000,0.00785200,0.01505311,0.02267230,0.02315260,-0.01514900
75825,20040429,EOG,-0.02314900,-0.00800000,-0.01514900,0.00455233,0.04141912,0.02731813,0.01212900
75825,20040430,EOG,0.00612900,-0.00600000,0.01212900,0.04578816,0.07721981,0.05841336,0.04988300
75825,20040503,EOG,0.05888300,0.00900000,0.04988300,0.09862322,0.08844525,0.10131060,0.03385800
75825,20040504,EOG,0.03585800,0.00200000,0.03385800,0.08340662,0.07872348,0.12170193,-0.00237000
75825,20040505,EOG,-0.00037000,0.00200000,-0.00237000,0.04195006,0.10693058,0.12957914,0.01033300
75825,20040506,EOG,0.00333300,-0.00700000,0.01033300,0.01653674,0.10234683,0.14462751,0.00864700
75825,20040507,EOG,-0.00535300,-0.01400000,0.00864700,-0.00166188,0.02875321,0.10555693,-0.02036000
75825,20040510,EOG,-0.03136000,-0.01100000,-0.02036000,-0.01340942,-0.00560931,0.08049200,-0.00167800
75825,20040511,EOG,0.00632200,0.00800000,-0.00167800,-0.01542087,0.00345410,0.08071590,0.00694700
75825,20040512,EOG,0.00894700,0.00200000,0.00694700,0.00861834,-0.00350114,0.10133766,0.00326400
75825,20040513,EOG,0.00226400,-0.00100000,0.00326400,0.03122335,0.00828715,0.11109838,0.02076700
75825,20040514,EOG,0.01976700,-0.00100000,0.02076700,0.04410934,0.05002606,0.07873833,0.01986100
75825,20040517,EOG,0.00886100,-0.01100000,0.01986100,0.01787405,0.02825619,0.02189039,-0.02255400
75825,20040518,EOG,-0.01555400,0.00700000,-0.02255400,-0.01601136,0.00753989,0.01082309,-0.01335700
75825,20040519,EOG,-0.01635700,-0.00300000,-0.01335700,-0.04423538,-0.00455508,-0.00793889,-0.00888100
75825,20040520,EOG,-0.00888100,0.00000000,-0.00888100,-0.02199186,-0.02459823,-0.01646453,0.00019400
75825,20040521,EOG,0.00419400,0.00400000,0.00019400,0.01099875,-0.02519908,0.02414506,0.01983400
75825,20040524,EOG,0.02183400,0.00200000,0.01983400,0.01793380,-0.00509723,0.02357366,-0.00243600
75825,20040525,EOG,0.01356400,0.01600000,-0.00243600,0.00689213,-0.00203966,0.00568538,-0.01043300
75825,20040526,EOG,-0.00843300,0.00200000,-0.01043300,-0.03714659,-0.01751966,-0.02199175,-0.02393300
75825,20040527,EOG,-0.01793300,0.00600000,-0.02393300,-0.02753576,-0.01073277,-0.03565275,0.00683600
75825,20040528,EOG,0.00583600,-0.00100000,0.00683600,0.00461977,-0.00843744,-0.03409088,0.02208500
75825,20040601,EOG,0.02208500,0.00000000,0.02208500,0.01136918,-0.02322400,-0.02869608,-0.01728300
75825,20040602,EOG,-0.01428300,0.00300000,-0.01728300,-0.00571141,-0.02276829,-0.02531327,-0.01009100
75825,20040603,EOG,-0.01709100,-0.00700000,-0.01009100,-0.04673809,-0.01897140,-0.03673265,-0.02012000
75825,20040604,EOG,-0.01512000,0.00500000,-0.02012000,-0.02154931,-0.01716164,-0.02832422,0.00913900
75825,20040607,EOG,0.02513900,0.01600000,0.00913900,-0.02104351,-0.04812410,-0.05742832,-0.00948800
75825,20040608,EOG,-0.00748800,0.00200000,-0.00948800,0.00034140,-0.02985243,-0.05284071,0.00089000
75825,20040609,EOG,-0.00811000,-0.00900000,0.00089000,0.02545236,0.01427999,-0.00923204,0.03455100
75825,20040610,EOG,0.03955100,0.00500000,0.03455100,0.04380498,0.04400862,0.02412885,0.00872000
75825,20040614,EOG,-0.00128000,-0.01000000,0.00872000,0.07380961,0.06413573,0.04706684,0.02916500
75825,20040615,EOG,0.03516500,0.00600000,0.02916500,0.06269515,0.09970377,0.04901822,0.02394700
75825,20040616,EOG,0.02494700,0.00100000,0.02394700,0.06121714,0.10708685,0.07474016,0.00686900
75825,20040617,EOG,0.00586900,-0.00100000,0.00686900,0.02601698,0.06491094,0.08133478,-0.00488800
75825,20040618,EOG,-0.00188800,0.00300000,-0.00488800,0.00926096,0.06370039,0.11097205,0.00726700
75825,20040621,EOG,0.00326700,-0.00400000,0.00726700,0.00868610,0.04001087,0.10665979,0.00628300
75825,20040622,EOG,0.01028300,0.00400000,0.00628300,0.04139498,0.04354998,0.14838341,0.02730200
75825,20040623,EOG,0.03630200,0.00900000,0.02730200,0.03353373,0.03598850,0.14792338,-0.00027400
75825,20040624,EOG,-0.00327400,-0.00300000,-0.00027400,0.01839567,0.03225808,0.09928848,-0.00813800
75825,20040625,EOG,-0.01313800,-0.00500000,-0.00813800,-0.02637998,0.00599911,0.07036262,-0.01830400
75825,20040628,EOG,-0.01930400,-0.00100000,-0.01830400,-0.02260589,0.00350518,0.04378447,0.00378800
75825,20040629,EOG,0.00678800,0.00300000,0.00378800,-0.01232798,-0.02056051,0.02177960,0.00240500
75825,20040630,EOG,0.00640500,0.00400000,0.00240500,0.02630644,-0.00065359,0.03498037,0.01988100
75825,20040701,EOG,0.00988100,-0.01000000,0.01988100,0.03396755,0.01902604,0.05168831,0.01145800
75825,20040702,EOG,0.00845800,-0.00300000,0.01145800,0.05335734,0.06015824,0.06667139,0.02181400
75825,20040706,EOG,0.01381400,-0.00800000,0.02181400,0.04216588,0.06504315,0.06891515,0.00854300
75825,20040707,EOG,0.01054300,0.00200000,0.00854300,0.03583960,0.06745399,0.04591993,0.00543200
75825,20040708,EOG,-0.00256800,-0.00800000,0.00543200,0.01779474,0.05145678,0.05031379,0.00375900
75825,20040709,EOG,0.00675900,0.00300000,0.00375900,0.00418996,0.03468831,0.05393938,-0.00499600
75825,20040712,EOG,-0.00399600,0.00100000,-0.00499600,-0.01192645,0.00201263,0.06220126,-0.01062900
75825,20040713,EOG,-0.00962900,0.00100000,-0.01062900,0.00180418,0.01100015,0.07620214,0.01758400
75825,20040714,EOG,0.01458400,-0.00300000,0.01758400,0.01964481,0.01843911,0.08650754,0.01279300
75825,20040715,EOG,0.00879300,-0.00400000,0.01279300,0.03902722,0.02309565,0.07490473,0.00848700
75825,20040716,EOG,0.00348700,-0.00500000,0.00848700,0.02001208,0.02686469,0.06183533,-0.00126300
75825,20040719,EOG,-0.00126300,-0.00000000,-0.00126300,-0.00671886,0.02367634,0.02570188,-0.01395800
75825,20040720,EOG,-0.00695800,0.00700000,-0.01395800,-0.02865350,-0.00784528,0.00295065,-0.01375200
75825,20040721,EOG,-0.02675200,-0.01300000,-0.01375200,-0.02567114,-0.01853100,-0.00054548,0.00190800
75825,20040722,EOG,0.00490800,0.00300000,0.00190800,-0.01175046,-0.02656286,-0.00411776,0.00006800
75825,20040723,EOG,-0.00993200,-0.01000000,0.00006800,-0.01143645,-0.03823855,-0.01238621,-0.01345800
75825,20040726,EOG,-0.01545800,-0.00200000,-0.01345800,-0.00066841,-0.01256500,0.01059023,0.01305000
75825,20040727,EOG,0.02305000,0.01000000,0.01305000,0.02044806,0.02231913,0.01394874,0.02104100
75825,20040728,EOG,0.02204100,0.00100000,0.02104100,0.03688345,0.02248320,0.00328145,0.00202900
75825,20040729,EOG,0.00702900,0.00500000,0.00202900,0.03054030,0.03001170,0.00185945,0.00709000
75825,20040730,EOG,0.00809000,0.00100000,0.00709000,0.00498755,0.04015079,-0.00103614,-0.00415700
75825,20040802,EOG,-0.00015700,0.00400000,-0.00415700,0.03037224,0.05445594,0.04048434,0.02724600
75825,20040803,EOG,0.02124600,-0.00600000,0.02724600,-0.03065216,-0.02197415,-0.00012093,-0.05262900
75825,20040804,EOG,-0.05362900,-0.00100000,-0.05262900,-0.02889619,-0.02626462,-0.00487871,-0.00288900
75825,20040805,EOG,-0.01888900,-0.01600000,-0.00288900,-0.06828522,-0.04734865,-0.02048149,-0.01570500
75825,20040806,EOG,-0.03070500,-0.01500000,-0.01570500,-0.00619572,-0.03172617,0.00501123,0.01269900
75825,20040809,EOG,0.01369900,0.00100000,0.01269900,-0.01058648,-0.06428526,-0.01463867,-0.00725700
75825,20040810,EOG,0.00574300,0.01300000,-0.00725700,-0.01764886,-0.03523812,-0.05610017,-0.02269700
75825,20040811,EOG,-0.02569700,-0.00300000,-0.02269700,-0.03398981,-0.03680173,-0.06101362,-0.00437600
75825,20040812,EOG,-0.01637600,-0.01200000,-0.00437600,-0.02028336,-0.01524861,-0.06135389,0.00671100
75825,20040813,EOG,0.00771100,0.00100000,0.00671100,-0.01179761,-0.04170819,-0.07099242,-0.01417400
75825,20040816,EOG,-0.00017400,0.01400000,-0.01417400,-0.04613634,-0.07135769,-0.12987711,-0.03835400
75825,20040817,EOG,-0.03635400,0.00200000,-0.03835400,-0.05204621,-0.04930525,-0.08240905,0.00117700
75825,20040818,EOG,0.01317700,0.01200000,0.00117700,-0.02023035,-0.02793572,-0.06418328,0.01771800
75825,20040819,EOG,0.01371800,-0.00400000,0.01771800,0.01748299,-0.03649386,-0.05165699,-0.00172800
75825,20040820,EOG,0.00527200,0.00700000,-0.00172800,0.00402206,-0.03378944,-0.07514738,-0.01181100
75825,20040823,EOG,-0.01381100,-0.00200000,-0.01181100,-0.01728873,0.00146236,-0.07092306,-0.00372300
75825,20040824,EOG,-0.00372300,0.00000000,-0.00372300,-0.02556429,-0.00986492,-0.05929293,-0.01013500
75825,20040825,EOG,-0.00213500,0.00800000,-0.01013500,0.00245894,-0.01126878,-0.03953679,0.01640500
75825,20040826,EOG,0.01640500,0.00000000,0.01640500,0.01222637,-0.00362508,-0.04039182,0.00589500
75825,20040827,EOG,0.00789500,0.00200000,0.00589500,0.02224294,0.00834607,-0.02566556,-0.00000700
75825,20040830,EOG,-0.00800700,-0.00800000,-0.00000700,0.01455553,0.02099117,0.02276681,0.00868700
75825,20040831,EOG,0.01368700,0.00500000,0.00868700,0.02558963,0.04862083,0.03870319,0.01686800
75825,20040901,EOG,0.01886800,0.00200000,0.01686800,0.01577855,0.02172226,0.01035685,-0.00998100
75825,20040902,EOG,0.00101900,0.01100000,-0.00998100,0.00764706,0.01637734,0.01280245,0.00077500
75825,20040903,EOG,-0.00322500,-0.00400000,0.00077500,-0.01196645,0.01380552,0.02246975,-0.00274300
75825,20040907,EOG,0.00425700,0.00700000,-0.00274300,0.00070075,0.00759173,0.02904623,0.00264400
75825,20040908,EOG,-0.00135600,-0.00400000,0.00264400,0.01153862,0.00230216,0.05161904,0.01158200
75825,20040909,EOG,0.01358200,0.00200000,0.01158200,0.00820838,0.00625716,0.02831972,-0.00600500
75825,20040910,EOG,-0.00100500,0.00500000,-0.00600500,0.02917646,0.02918346,0.04640791,0.02331900
75825,20040913,EOG,0.02531900,0.00200000,0.02331900,0.04893300,0.06387423,0.08000675,0.03087000
75825,20040914,EOG,0.03287000,0.00200000,0.03087000,0.05399681,0.06021177,0.06901136,-0.00060000
75825,20040915,EOG,-0.00760000,-0.00700000,-0.00060000,0.03375398,0.05181733,0.05487039,0.00354100
75825,20040916,EOG,0.00654100,0.00300000,0.00354100,0.00668679,0.06209673,0.06913753,0.00376700
75825,20040917,EOG,0.00776700,0.00400000,0.00376700,0.01163400,0.04198850,0.07278398,0.00427000
75825,20040920,EOG,-0.00173000,-0.00600000,0.00427000,0.03280973,0.03569720,0.10209669,0.02456600
75825,20040921,EOG,0.03056600,0.00600000,0.02456600,0.03228068,0.03998789,0.10233712,0.00375700
75825,20040922,EOG,-0.01024300,-0.01400000,0.00375700,0.01682504,0.02486895,0.07731904,-0.01091000
75825,20040923,EOG,-0.01591000,-0.00500000,-0.01091000,0.00840678,0.03697877,0.10046260,0.01589400
75825,20040924,EOG,0.01789400,0.00200000,0.01589400,0.00543934,0.03338941,0.07593075,0.00075700
75825,20040927,EOG,-0.00524300,-0.00600000,0.00075700,0.03178298,0.02388301,0.05982405,0.01492700
75825,20040928,EOG,0.02092700,0.00600000,0.01492700,-0.00211409,0.00261031,0.04272166,-0.01751400
75825,20040929,EOG,-0.01351400,0.00400000,-0.01751400,0.01074779,0.02761806,0.05290694,0.01354500
75825,20040930,EOG,0.01354500,-0.00000000,0.01354500,0.00128597,0.01721370,0.05523978,0.00550100
75825,20041001,EOG,0.02050100,0.01500000,0.00550100,0.02120424,0.01840938,0.05304370,0.00176200
75825,20041004,EOG,0.00476200,0.00300000,0.00176200,0.03460553,0.03037763,0.05497344,0.02662200
75825,20041005,EOG,0.02562200,-0.00100000,0.02662200,0.03667344,0.05743009,0.06030744,0.00772900
75825,20041006,EOG,0.01472900,0.00700000,0.00772900,0.03516864,0.04334648,0.07280455,0.00075000
75825,20041007,EOG,-0.00925000,-0.01000000,0.00075000,0.01754347,0.04627280,0.06500715,0.00914900
75825,20041008,EOG,0.00114900,-0.00800000,0.00914900,0.00144067,0.03568055,0.05556959,-0.00845600
75825,20041011,EOG,-0.00645600,0.00200000,-0.00845600,-0.01267929,-0.00440156,0.02541385,-0.01345100
75825,20041012,EOG,-0.01545100,-0.00200000,-0.01345100,-0.05267990,-0.04251283,0.01002504,-0.03172100
75825,20041013,EOG,-0.03872100,-0.00700000,-0.03172100,-0.01658961,-0.01581235,0.02559662,0.02915900
75825,20041014,EOG,0.02015900,-0.00900000,0.02915900,-0.01042498,-0.03173926,0.01279727,-0.00714400
75825,20041015,EOG,-0.00314400,0.00400000,-0.00714400,0.00647516,-0.03845677,-0.00408435,-0.01536200
75825,20041018,EOG,-0.01036200,0.00500000,-0.01536200,-0.01090661,-0.01409757,-0.01820652,0.01151700
75825,20041019,EOG,0.00151700,-0.01000000,0.01151700,0.03027857,0.05266846,0.00703815,0.03439400
75825,20041020,EOG,0.03439400,0.00000000,0.03439400,0.05209825,0.02906102,0.01206664,0.00578900
75825,20041021,EOG,0.00878900,0.00300000,0.00578900,0.04884879,0.04463205,0.01132269,0.00840300
75825,20041022,EOG,-0.00159700,-0.01000000,0.00840300,0.01695836,0.06316273,0.02239553,0.00274500
75825,20041025,EOG,0.00174500,-0.00100000,0.00274500,0.00849682,0.04950721,0.03377391,-0.00280500
75825,20041026,EOG,0.01219500,0.01500000,-0.00280500,-0.04011099,-0.02580504,0.02681445,-0.03953500
75825,20041027,EOG,-0.02653500,0.01300000,-0.03953500,-0.08614636,-0.07468683,-0.04739008,-0.04384500
75825,20041028,EOG,-0.04184500,0.00200000,-0.04384500,-0.06238039,-0.06327545,-0.01930932,0.02152800
75825,20041029,EOG,0.02352800,0.00200000,0.02152800,-0.03656655,-0.07906053,-0.01743202,-0.01352200
75825,20041101,EOG,-0.01352200,0.00000000,-0.01352200,-0.01138014,-0.09307482,-0.04796928,-0.01888500
75825,20041102,EOG,-0.01888500,0.00000000,-0.01888500,-0.02241844,-0.04554762,-0.07147409,0.01042200
75825,20041103,EOG,0.02142200,0.01100000,0.01042200,-0.00524445,0.00260150,-0.07441351,0.00375700
75825,20041104,EOG,0.01975700,0.01600000,0.00375700,0.01792440,-0.01580944,-0.08055861,0.00330300
75825,20041105,EOG,0.00730300,0.00400000,0.00330300,-0.02785749,-0.03695334,-0.11667821,-0.03406400
75825,20041108,EOG,-0.03506400,-0.00100000,-0.03406400,-0.02956289,-0.01633780,-0.11089058,0.00146000
75825,20041109,EOG,0.00046000,-0.00100000,0.00146000,-0.01815988,-0.01153497,-0.05750540,0.01494600
75825,20041110,EOG,0.01394600,-0.00100000,0.01494600,-0.00222974,-0.03339684,-0.03183242,-0.01852200
75825,20041111,EOG,-0.00952200,0.00900000,-0.01852200,0.03075341,-0.00348899,-0.01959004,0.03433900
75825,20041112,EOG,0.04333900,0.00900000,0.03433900,0.00217337,0.01891290,-0.01876010,-0.01272500
75825,20041115,EOG,-0.01272500,-0.00000000,-0.01272500,0.02064838,0.01703010,0.00074929,-0.00025900
75825,20041116,EOG,-0.00725900,-0.00700000,-0.00025900,-0.00436956,0.01079194,-0.00088030,0.00877400
75825,20041117,EOG,0.01477400,0.00600000,0.00877400,0.02656219,0.04842240,0.01359349,0.01797100
75825,20041118,EOG,0.01897100,0.00100000,0.01797100,0.06868879,0.05448333,0.05166165,0.04058600
75825,20041119,EOG,0.02958600,-0.01100000,0.04058600,0.08524810,0.09429489,0.11640759,0.02455800
75825,20041122,EOG,0.03055800,0.00600000,0.02455800,0.07376301,0.10315505,0.12300004,0.00720900
75825,20041123,EOG,0.00720900,-0.00000000,0.00720900,0.04786768,0.10994070,0.12378937,0.01517600
75825,20041124,EOG,0.01917600,0.00400000,0.01517600,0.02641575,0.09447318,0.14831213,0.00377000
75825,20041126,EOG,0.00477000,0.00100000,0.00377000,0.01489155,0.04750805,0.10449108,-0.00398900
75825,20041129,EOG,-0.00698900,-0.00300000,-0.00398900,0.00069553,0.02310219,0.11926709,0.00094600
75825,20041130,EOG,-0.00305400,-0.00400000,0.00094600,-0.04390785,-0.02577926,0.07600336,-0.04124200
75825,20041201,EOG,-0.02624200,0.01500000,-0.04124200,-0.07393881,-0.07402408,0.02865403,-0.03484100
75825,20041202,EOG,-0.03584100,-0.00100000,-0.03484100,-0.05376198,-0.05630235,0.03360361,0.02283700
75825,20041203,EOG,0.02383700,0.00100000,0.02283700,-0.01869732,-0.05826674,-0.01352136,-0.00592900
75825,20041206,EOG,-0.00692900,-0.00100000,-0.00592900,0.00163680,-0.07276427,-0.05113080,-0.01467700
75825,20041207,EOG,-0.02567700,-0.01100000,-0.01467700,-0.01429270,-0.02687571,-0.05212845,0.00645800
75825,20041208,EOG,0.01145800,0.00500000,0.00645800,-0.00379875,0.01286324,-0.06193092,0.00477100
75825,20041209,EOG,0.00977100,0.00500000,0.00477100,-0.01073280,-0.03100814,-0.08563628,-0.02157700
75825,20041210,EOG,-0.02257700,-0.00100000,-0.02157700,0.00028082,-0.00829168,-0.06655948,0.01768600
75825,20041213,EOG,0.02668600,0.00900000,0.01768600,-0.00164536,0.00977157,-0.06528913,0.00284700
75825,20041214,EOG,0.00684700,0.00400000,0.00284700,0.03601395,0.01826682,-0.00974238,0.01479400
75825,20041215,EOG,0.01679400,0.00200000,0.01479400,0.00005582,-0.00444638,0.00851909,-0.01724700
75825,20041216,EOG,-0.01924700,-0.00200000,-0.01724700,0.02282602,0.04413057,0.01143381,0.02565000
75825,20041217,EOG,0.01865000,-0.00700000,0.02565000,0.01157867,0.02944231,0.02113470,0.00355200
75825,20041220,EOG,0.00355200,0.00000000,0.00355200,0.02631571,0.02346502,0.03400495,-0.00314600
75825,20041221,EOG,0.00585400,0.00900000,-0.00314600,-0.02828709,-0.02013337,-0.00256564,-0.02844700
75825,20041222,EOG,-0.02544700,0.00300000,-0.02844700,-0.02632263,0.00271151,-0.00173632,0.00555600
75825,20041223,EOG,0.00555600,0.00000000,0.00555600,-0.04609106,-0.04609916,-0.00392471,-0.02362400
75825,20041227,EOG,-0.02762400,-0.00400000,-0.02362400,-0.01269354,-0.04430629,-0.01559147,0.00578400
75825,20041228,EOG,0.01278400,0.00700000,0.00578400,-0.01857971,-0.04130839,-0.01875217,-0.00042100
75825,20041229,EOG,-0.00042100,-0.00000000,-0.00042100,0.00010249,-0.01824883,-0.03812815,-0.00519100
75825,20041230,EOG,-0.00519100,0.00000000,-0.00519100,0.00184173,-0.01633320,-0.01374138,0.00748800
75825,20041231,EOG,0.00648800,-0.00100000,0.00748800,-0.05723487,-0.05263267,-0.09663072,-0.05940500
75825,20050103,EOG,-0.06740500,-0.00800000,-0.05940500,-0.05528017,-0.06046274,-0.10207389,-0.00377800
75825,20050104,EOG,-0.01577800,-0.01200000,-0.00377800,-0.06600247,-0.06387652,-0.10190384,-0.00439700
75825,20050105,EOG,-0.00839700,-0.00400000,-0.00439700,0.00239902,-0.04948133,-0.06659285,0.01078100
75825,20050106,EOG,0.01478100,0.00400000,0.01078100,0.00071106,-0.06149955,-0.07660800,-0.00552400
75825,20050107,EOG,-0.00652400,-0.00100000,-0.00552400,0.01801396,0.00944181,-0.04317863,0.01273000
75825,20050110,EOG,0.01573000,0.00300000,0.01273000,0.01979357,0.02616823,-0.03617948,0.01261500
75825,20050111,EOG,0.00661500,-0.00600000,0.01261500,0.03537634,0.04083462,-0.02691651,0.00959200
75825,20050112,EOG,0.01359200,0.00400000,0.00959200,0.04243827,0.04985273,-0.00269044,0.01991400
75825,20050113,EOG,0.01091400,-0.00900000,0.01991400,0.04479968,0.07129626,0.00405029,0.01457200
75825,20050114,EOG,0.02057200,0.00600000,0.01457200,0.04942605,0.07290460,0.08234864,0.01387400
75825,20050118,EOG,0.02387400,0.01000000,0.01387400,0.02751691,0.05809101,0.08559349,-0.00105300
75825,20050119,EOG,-0.01005300,-0.00900000,-0.00105300,0.02382353,0.05909665,0.10216536,0.01110300
75825,20050120,EOG,0.00310300,-0.00800000,0.01110300,0.02324527,0.05250777,0.10414837,0.01345200
75825,20050121,EOG,0.00745200,-0.00600000,0.01345200,0.03524418,0.04816714,0.12158479,0.01069900
75825,20050124,EOG,0.00669900,-0.00400000,0.01069900,0.01712350,0.02689098,0.10022192,-0.00705000
75825,20050125,EOG,-0.00305000,0.00400000,-0.00705000,0.01301962,0.03780975,0.09764190,0.00932300
75825,20050126,EOG,0.01432300,0.00500000,0.00932300,0.01094328,0.03549364,0.09626649,0.00863700
75825,20050127,EOG,0.00863700,0.00000000,0.00863700,0.02707855,0.03082861,0.08483860,0.00884500
75825,20050128,EOG,0.00584500,-0.00300000,0.00884500,0.01298351,0.01534964,0.06467146,-0.00462200
75825,20050131,EOG,0.00337800,0.00800000,-0.00462200,0.02033961,0.03910998,0.06661836,0.01589600
75825,20050201,EOG,0.02289600,0.00700000,0.01589600,0.01730469,0.03540593,0.07480330,0.00582200
75825,20050202,EOG,0.00882200,0.00300000,0.00582200,0.03381800,0.03842713,0.07567048,0.01161400
75825,20050203,EOG,0.00861400,-0.00300000,0.01161400,-0.00177380,0.00959905,0.04155057,-0.01915200
75825,20050204,EOG,-0.00815200,0.01100000,-0.01915200,-0.00252171,0.01944921,0.03563218,0.00504400
75825,20050207,EOG,0.00404400,-0.00100000,0.00504400,-0.00468424,0.01292965,0.05315634,0.00948500
75825,20050208,EOG,0.00948500,0.00000000,0.00948500,0.03073346,0.02324588,0.05975015,0.01607900
75825,20050209,EOG,0.00707900,-0.00900000,0.01607900,0.04453636,0.03029313,0.07043630,0.01849500
75825,20050210,EOG,0.02249500,0.00400000,0.01849500,0.04389420,0.05908523,0.07080910,0.00862500
75825,20050211,EOG,0.01562500,0.00700000,0.00862500,0.03793572,0.06450637,0.08636700,0.01007700
75825,20050214,EOG,0.01107700,0.00100000,0.01007700,0.01609354,0.05172493,0.06591637,-0.00275700
75825,20050215,EOG,0.00024300,0.00300000,-0.00275700,0.04202725,0.07119755,0.09629915,0.03431900
75825,20050216,EOG,0.03431900,0.00000000,0.03431900,0.02218667,0.04155626,0.07340114,-0.00882600
75825,20050217,EOG,-0.01682600,-0.00800000,-0.00882600,0.04838550,0.05620167,0.11848048,0.02305500
75825,20050218,EOG,0.02405500,0.00100000,0.02305500,0.04084630,0.07313720,0.14135213,0.02703700
75825,20050222,EOG,0.01203700,-0.01500000,0.02703700,0.04256537,0.06799923,0.12281593,-0.00784800
75825,20050223,EOG,-0.00184800,0.00600000,-0.00784800,0.03341677,0.04746098,0.12217197,0.01386500
75825,20050224,EOG,0.02186500,0.00800000,0.01386500,0.03340706,0.08618691,0.13194554,0.02688800
75825,20050225,EOG,0.03588800,0.00900000,0.02688800,0.04317199,0.06307891,0.12273444,0.00184700
75825,20050228,EOG,-0.00415300,-0.00600000,0.00184700,-0.01326565,-0.00754895,0.06687156,-0.04078900
75825,20050301,EOG,-0.03478900,0.00600000,-0.04078900,-0.01679433,0.02368678,0.09407529,0.02285400
75825,20050302,EOG,0.02285400,-0.00000000,0.02285400,0.00102416,0.02986829,0.07892847,0.02000900
75825,20050303,EOG,0.02000900,0.00000000,0.02000900,0.05401357,0.01276874,0.10102769,0.00983400
75825,20050304,EOG,0.01983400,0.01000000,0.00983400,0.01387095,-0.00527985,0.05866194,-0.01582300
75825,20050307,EOG,-0.01282300,0.00300000,-0.01582300,0.01775407,0.06218852,0.05554889,0.02383500
75825,20050308,EOG,0.01883500,-0.00500000,0.02383500,0.00836130,0.03857499,0.06378254,0.00065000
75825,20050309,EOG,-0.00935000,-0.01000000,0.00065000,-0.01581465,-0.02211336,0.00689266,-0.03975200
75825,20050310,EOG,-0.03775200,0.00200000,-0.03975200,-0.01974301,-0.01219574,0.00006670,0.01959200
75825,20050311,EOG,0.01159200,-0.00800000,0.01959200,-0.01818001,0.00590831,0.00078937,0.00259400
75825,20050314,EOG,0.00859400,0.00600000,0.00259400,0.01047784,-0.02835245,0.03072944,-0.01144500
75825,20050315,EOG,-0.01944500,-0.00800000,-0.01144500,0.00826847,-0.01232651,0.02518235,0.01735800
75825,20050316,EOG,0.00935800,-0.00800000,0.01735800,0.02620255,0.04875580,0.02591201,0.02073700
75825,20050317,EOG,0.02273700,0.00200000,0.02073700,0.08021289,0.07041296,0.05619356,0.04057800
75825,20050318,EOG,0.04057800,-0.00000000,0.04057800,0.05510689,0.06019105,0.06544039,-0.00640800
75825,20050321,EOG,-0.01140800,-0.00500000,-0.00640800,0.02077764,0.05919987,0.02869695,-0.01224100
75825,20050322,EOG,-0.02224100,-0.01000000,-0.01224100,-0.05199622,0.00603220,-0.00631727,-0.03469100
75825,20050323,EOG,-0.03369100,0.00100000,-0.03469100,-0.03553039,-0.00318035,0.04474229,0.01121500
75825,20050324,EOG,0.01021500,-0.00100000,0.01121500,-0.03032520,-0.04779461,0.01872379,-0.00661600
75825,20050328,EOG,-0.00461600,0.00200000,-0.00661600,0.00079192,-0.04510083,0.01226741,-0.00370500
75825,20050329,EOG,-0.01170500,-0.00800000,-0.00370500,0.01144536,-0.01283460,0.04634101,0.02220100
75825,20050330,EOG,0.03620100,0.01400000,0.02220100,0.07153146,0.07650471,0.08211639,0.05211100
75825,20050331,EOG,0.05111100,-0.00100000,0.05211100,0.11622068,0.10400837,0.09893951,0.03718600
75825,20050401,EOG,0.03118600,-0.00600000,0.03718600,0.08380873,0.10393743,0.04973758,-0.00678000
75825,20050404,EOG,-0.00378000,0.00300000,-0.00678000,0.02426669,0.10268043,0.05068018,-0.00599700
75825,20050405,EOG,-0.00199700,0.00400000,-0.00599700,-0.01360132,0.07696286,0.06372312,-0.00079900
75825,20050406,EOG,0.00120100,0.00200000,-0.00079900,-0.03101686,-0.00119219,0.07590205,-0.02418900
75825,20050407,EOG,-0.01818900,0.00600000,-0.02418900,-0.05358001,-0.06605164,0.03175447,-0.02925600
75825,20050408,EOG,-0.03725600,-0.00800000,-0.02925600,-0.02733427,-0.03410479,0.06663511,0.02685600
75825,20050411,EOG,0.02685600,0.00000000,0.02685600,-0.03317193,-0.05757828,0.03899641,-0.03009400
75825,20050412,EOG,-0.02409400,0.00600000,-0.03009400,-0.02437782,-0.07544200,-0.00505788,-0.02049600
75825,20050413,EOG,-0.03249600,-0.01200000,-0.02049600,-0.04206275,-0.04492935,-0.04644340,0.00759900
75825,20050414,EOG,-0.00240100,-0.01000000,0.00759900,-0.04024011,-0.04406075,-0.10534628,-0.02851400
75825,20050415,EOG,-0.04551400,-0.01700000,-0.02851400,0.00142645,-0.04719899,-0.07886280,0.02359300
75825,20050418,EOG,0.02659300,0.00300000,0.02359300,0.02782867,0.01402604,-0.04255843,0.03464300
75825,20050419,EOG,0.04064300,0.00600000,0.03464300,0.04834465,0.02514379,-0.05007389,-0.00953200
75825,20050420,EOG,-0.02253200,-0.01300000,-0.00953200,0.03835859,0.03142830,-0.01559855,0.01337000
75825,20050421,EOG,0.03337000,0.02000000,0.01337000,0.01640240,0.07680344,0.02646051,0.01294900
75825,20050422,EOG,0.00594900,-0.00700000,0.01294900,0.03861814,0.06408880,0.01125684,0.01127500
75825,20050425,EOG,0.02027500,0.00900000,0.01127500,0.02152780,0.02506741,0.03869165,-0.00259200
75825,20050426,EOG,-0.01159200,-0.00900000,-0.00259200,0.00516273,0.03212882,0.05751340,-0.00337200
75825,20050427,EOG,0.00062800,0.00400000,-0.00337200,-0.00513309,0.01874935,0.05029738,0.00074500
75825,20050428,EOG,-0.01025500,-0.01100000,0.00074500,-0.00905975,-0.00056568,0.07655728,-0.00650200
75825,20050429,EOG,0.00549800,0.01200000,-0.00650200,0.02824306,0.02196315,0.08783502,0.03411700
75825,20050502,EOG,0.03911700,0.00500000,0.03411700,0.00996666,0.00723971,0.03270853,-0.01701300
75825,20050503,EOG,-0.01801300,-0.00100000,-0.01701300,0.01003502,0.00421428,0.03709319,-0.00643500
75825,20050504,EOG,0.00556500,0.01200000,-0.00643500,0.00277099,0.03088627,0.05025156,0.02657000
75825,20050505,EOG,0.02357000,-0.00300000,0.02657000,0.01677722,0.03365432,0.03322403,-0.00340500
75825,20050506,EOG,-0.00440500,-0.00100000,-0.00340500,0.02200107,-0.00185775,0.02034837,-0.00117300
75825,20050509,EOG,0.00482700,0.00600000,-0.00117300,-0.01216087,0.00766239,0.01504628,-0.00761500
75825,20050510,EOG,-0.01861500,-0.01100000,-0.00761500,-0.01460211,0.00815261,0.01251782,-0.00583600
75825,20050511,EOG,-0.00183600,0.00400000,-0.00583600,-0.07269878,-0.07724327,-0.05105810,-0.06069900
75825,20050512,EOG,-0.07069900,-0.01000000,-0.06069900,-0.07138926,-0.07911342,-0.04960867,-0.00577400
75825,20050513,EOG,-0.01077400,-0.00500000,-0.00577400,-0.07888079,-0.09057490,-0.09341835,-0.01355600
75825,20050516,EOG,-0.00355600,0.01000000,-0.01355600,0.00186767,-0.06542806,-0.05840840,0.02155200
75825,20050517,EOG,0.02855200,0.00700000,0.02155200,0.00476664,-0.06317076,-0.05511544,-0.00306000
75825,20050518,EOG,0.00694000,0.01000000,-0.00306000,0.03071084,0.01060391,-0.06968854,0.01158400
75825,20050519,EOG,0.01658400,0.00500000,0.01158400,0.02493279,0.03347990,-0.05121667,0.01598300
75825,20050520,EOG,0.01398300,-0.00200000,0.01598300,0.05373447,0.07440289,-0.02600302,0.02504300
75825,20050523,EOG,0.02904300,0.00400000,0.02504300,0.05351682,0.06338817,-0.00693201,0.01157400
75825,20050524,EOG,0.01157400,0.00000000,0.01157400,0.04372616,0.07290928,0.00574772,0.00661300
75825,20050525,EOG,0.00361300,-0.00300000,0.00661300,0.02321130,0.06578309,0.07892765,0.00480000
75825,20050526,EOG,0.01080000,0.00600000,0.00480000,0.01769291,0.05551793,0.09280730,0.00612300
75825,20050527,EOG,0.00712300,0.00100000,0.00612300,-0.00316430,0.01503395,0.09076741,-0.01384300
75825,20050531,EOG,-0.01984300,-0.00600000,-0.01384300,0.01682649,0.02858496,0.09471317,0.02507500
75825,20050601,EOG,0.03407500,0.00900000,0.02507500,0.00821078,0.01940684,0.09468269,-0.00238800
75825,20050602,EOG,-0.00038800,0.00200000,-0.00238800,0.03173736,0.02344283,0.09081344,0.00893900
75825,20050603,EOG,0.00193900,-0.00700000,0.00893900,0.01409846,0.02485686,0.08189344,0.00751600
75825,20050606,EOG,0.00851600,0.00100000,0.00751600,-0.00659659,0.01570104,0.03101337,-0.02283600
75825,20050607,EOG,-0.02283600,-0.00000000,-0.02283600,0.01629246,0.02287547,0.05210132,0.03224400
75825,20050608,EOG,0.03024400,-0.00200000,0.03224400,0.03615875,0.05306517,0.07407933,0.02721500
75825,20050609,EOG,0.03221500,0.00500000,0.02721500,0.06284159,0.04639968,0.07092644,0.00236900
75825,20050610,EOG,0.00036900,-0.00200000,0.00236900,0.03846484,0.04748412,0.07354400,0.00852200
75825,20050613,EOG,0.01052200,0.00200000,0.00852200,0.02027224,0.08218254,0.09967444,0.00924000
75825,20050614,EOG,0.01224000,0.00300000,0.00924000,0.01919829,0.04963761,0.07357957,0.00124900
75825,20050615,EOG,0.00324900,0.00200000,0.00124900,0.01472364,0.02588126,0.08072002,0.00409500
75825,20050616,EOG,0.00809500,0.00400000,0.00409500,0.00231776,0.02045308,0.06858938,-0.00303700
75825,20050617,EOG,0.00196300,0.00500000,-0.00303700,0.02328975,0.03425859,0.08409175,0.02201500
75825,20050620,EOG,0.02101500,-0.00100000,0.02201500,0.00622097,0.01166482,0.09553397,-0.01247800
75825,20050621,EOG,-0.01447800,-0.00200000,-0.01247800,0.01546429,0.01667091,0.06760075,0.00619500
75825,20050622,EOG,0.00619500,0.00000000,0.00619500,0.00233736,0.02116858,0.04755486,0.00871300
75825,20050623,EOG,-0.00228700,-0.01100000,0.00871300,0.00829252,0.01740036,0.03804250,-0.00645700
75825,20050624,EOG,-0.01445700,-0.00800000,-0.00645700,0.01795810,0.01156173,0.04561870,0.01602700
75825,20050627,EOG,0.01502700,-0.00100000,0.01602700,-0.01262077,0.00222278,0.01380217,-0.02204200
75825,20050628,EOG,-0.01304200,0.00900000,-0.02204200,0.00321418,0.00537693,0.02196864,0.00939300
75825,20050629,EOG,0.00839300,-0.00100000,0.00939300,0.00012281,0.00947641,0.03058924,0.01284400
75825,20050630,EOG,0.00584400,-0.00700000,0.01284400,0.04930263,0.04322008,0.06047904,0.02657700
75825,20050701,EOG,0.02957700,0.00300000,0.02657700,0.05668278,0.04360071,0.05486371,0.01613700
75825,20050705,EOG,0.02513700,0.00900000,0.01613700,0.03497712,0.05784349,0.05954530,-0.00768000
75825,20050706,EOG,-0.01568000,-0.00800000,-0.00768000,0.02904688,0.06981171,0.07471608,0.02070800
75825,20050707,EOG,0.02270800,0.00200000,0.02070800,0.00259536,0.04642652,0.05613910,-0.01017700
75825,20050708,EOG,0.00182300,0.01200000,-0.01017700,0.00395612,0.01229041,0.05698773,-0.00649600
75825,20050711,EOG,-0.00049600,0.00600000,-0.00649600,-0.00353788,0.00938167,0.05412228,0.01322400
75825,20050712,EOG,0.01522400,0.00200000,0.01322400,-0.00339660,0.00716355,0.06673234,-0.00996500
75825,20050713,EOG,-0.00896500,0.00100000,-0.00996500,-0.02687979,-0.04376203,0.02473171,-0.02982700
75825,20050714,EOG,-0.02682700,0.00300000,-0.02982700,-0.04789808,-0.04186113,0.00247431,-0.00861000
75825,20050715,EOG,-0.00761000,0.00100000,-0.00861000,-0.04126406,-0.03840254,-0.02738069,-0.00337300
75825,20050718,EOG,-0.00937300,-0.00600000,-0.00337300,0.01529161,-0.02488408,-0.01602751,0.02775000
75825,20050719,EOG,0.03475000,0.00700000,0.02775000,0.02812021,-0.01130633,-0.00441418,0.00381100
75825,20050720,EOG,0.00881100,0.00500000,0.00381100,0.03117514,0.01868321,-0.02544095,-0.00041600
75825,20050721,EOG,-0.00741600,-0.00700000,-0.00041600,0.05323773,0.07873587,0.03444309,0.04979000
75825,20050722,EOG,0.05479000,0.00500000,0.04979000,0.06568385,0.10020556,0.05782463,0.01612000
75825,20050725,EOG,0.01212000,-0.00400000,0.01612000,0.08202565,0.08550943,0.05898460,0.01433000
75825,20050726,EOG,0.01633000,0.00200000,0.01433000,0.00111115,0.05031218,0.03892898,-0.02887100
75825,20050727,EOG,-0.02387100,0.00500000,-0.02887100,-0.06670636,-0.00375069,0.01512515,-0.05208900
75825,20050728,EOG,-0.04608900,0.00600000,-0.05208900,-0.06797651,-0.03917775,0.03639308,0.01210800
75825,20050729,EOG,0.00410800,-0.00800000,0.01210800,-0.03923925,-0.05385314,0.04123287,0.00096400
75825,20050801,EOG,0.00196400,0.00100000,0.00096400,0.02963705,-0.05228904,0.02963823,0.01635800
75825,20050802,EOG,0.02335800,0.00700000,0.01635800,0.00571455,-0.03501054,0.01385685,-0.01137500
75825,20050803,EOG,-0.01037500,0.00100000,-0.01137500,0.01815978,0.03137060,0.02796559,0.01329000
75825,20050804,EOG,0.00629000,-0.00700000,0.01329000,0.00278588,0.01997504,-0.01972919,0.00094800
75825,20050805,EOG,-0.00705200,-0.00800000,0.00094800,0.01951190,0.02440937,-0.03007254,0.00542100
75825,20050808,EOG,0.00242100,-0.00300000,0.00542100,-0.00620494,-0.00433005,-0.05591543,-0.01263600
75825,20050809,EOG,-0.00563600,0.00700000,-0.01263600,0.01739924,0.03155072,-0.00388997,0.02467200
75825,20050810,EOG,0.02267200,-0.00200000,0.02467200,0.02018481,0.02649504,0.05856478,0.00804300
75825,20050811,EOG,0.01504300,0.00700000,0.00804300,0.03246063,0.02515581,0.04553934,-0.00039600
75825,20050812,EOG,-0.00639600,-0.00600000,-0.00039600,-0.00665337,0.00520366,0.02990670,-0.01414800
75825,20050815,EOG,-0.01114800,0.00300000,-0.01414800,-0.03041629,0.00100087,-0.00329995,-0.01642200
75825,20050816,EOG,-0.02842200,-0.01200000,-0.01642200,-0.05381738,-0.04674582,-0.01628600,-0.02453300
75825,20050817,EOG,-0.02353300,0.00100000,-0.02453300,-0.03452171,-0.04819976,-0.02342275,0.00602100
75825,20050818,EOG,0.00502100,-0.00100000,0.00602100,-0.00279687,-0.03293439,-0.00890601,0.01615200
75825,20050819,EOG,0.01715200,0.00100000,0.01615200,0.02578332,-0.01589366,-0.01096224,0.00340300
75825,20050822,EOG,0.00540300,0.00200000,0.00340300,0.01582746,-0.00309651,-0.00206756,-0.00367600
75825,20050823,EOG,-0.00667600,-0.00300000,-0.00367600,0.01798623,0.04046852,-0.00808218,0.01831100
75825,20050824,EOG,0.01131100,-0.00700000,0.01831100,0.01207032,0.03183219,-0.01813679,-0.00248600
75825,20050825,EOG,-0.00048600,0.00200000,-0.00248600,0.00213093,0.00182847,-0.03078633,-0.01346200
75825,20050826,EOG,-0.01946200,-0.00600000,-0.01346200,-0.00115365,0.01340821,-0.00269200,0.01517100
75825,20050829,EOG,0.02117100,0.00600000,0.01517100,0.02801150,0.04410010,0.04089157,0.02664800
75825,20050830,EOG,0.02364800,-0.00300000,0.02664800,0.04272761,0.02574191,0.06740833,-0.00003200
75825,20050831,EOG,0.00996800,0.01000000,-0.00003200,0.06863494,0.07006748,0.10403103,0.04036000
75825,20050901,EOG,0.04136000,0.00100000,0.04036000,0.02445971,0.06824357,0.06939942,-0.01535400
75825,20050902,EOG,-0.01835400,-0.00300000,-0.01535400,0.02584601,0.05389768,0.06783710,0.00125300
75825,20050906,EOG,0.01425300,0.01300000,0.00125300,-0.01318431,0.02735181,0.07345809,0.00117300
75825,20050907,EOG,0.00317300,0.00200000,0.00117300,0.02336387,0.04839943,0.07605045,0.02056900
75825,20050908,EOG,0.01656900,-0.00400000,0.02056900,0.05945141,0.04478288,0.11946463,0.03674700
75825,20050909,EOG,0.04474700,0.00800000,0.03674700,0.05110991,0.05445536,0.12824398,-0.00651700
75825,20050912,EOG,-0.00751700,-0.00100000,-0.00651700,0.01528799,0.03737003,0.09378973,-0.01386300
75825,20050913,EOG,-0.02186300,-0.00800000,-0.01386300,-0.00661369,0.05037026,0.08004447,0.01395700
75825,20050914,EOG,0.01095700,-0.00300000,0.01395700,0.01269152,0.04273317,0.09338641,0.01300600
75825,20050915,EOG,0.01300600,0.00000000,0.01300600,0.02731111,0.00618895,0.05116615,-0.00001100
75825,20050916,EOG,0.00798900,0.00800000,-0.00001100,0.04862710,0.04791530,0.10535147,0.03487100
75825,20050919,EOG,0.02887100,-0.00600000,0.03487100,0.02903127,0.05667222,0.09564809,-0.00561800
75825,20050920,EOG,-0.01361800,-0.00800000,-0.00561800,0.07066121,0.08495199,0.13816190,0.04149200
75825,20050921,EOG,0.03249200,-0.00900000,0.04149200,0.02936399,0.06513519,0.10991429,-0.00602600
75825,20050922,EOG,-0.00202600,0.00400000,-0.00602600,0.01422067,0.04312745,0.04929718,-0.02062400
75825,20050923,EOG,-0.01962400,0.00100000,-0.02062400,0.00161330,0.03717957,0.08596463,0.02885100
75825,20050926,EOG,0.02885100,0.00000000,0.02885100,0.01212720,0.04796755,0.10669530,0.00442800
75825,20050927,EOG,0.00442800,0.00000000,0.00442800,0.04731567,0.01965230,0.10648931,0.01342700
75825,20050928,EOG,0.01442700,0.00100000,0.01342700,0.00716545,0.01496501,0.08162703,-0.01071200
75825,20050929,EOG,-0.00171200,0.00900000,-0.01071200,-0.01048518,0.02293947,0.06712001,-0.01300400
75825,20050930,EOG,-0.01200400,0.00100000,-0.01300400,0.02032224,0.03876868,0.07725859,0.04459000
75825,20051003,EOG,0.04259000,-0.00200000,0.04459000,0.00004292,0.00269522,0.05072874,-0.02982600
75825,20051004,EOG,-0.03982600,-0.01000000,-0.02982600,-0.01966157,-0.04246149,-0.02423406,-0.03247900
75825,20051005,EOG,-0.04747900,-0.01500000,-0.03247900,-0.10814276,-0.08121192,-0.06880194,-0.05228700
75825,20051006,EOG,-0.05628700,-0.00400000,-0.05228700,-0.06380546,-0.05102169,-0.03042998,0.02077700
75825,20051007,EOG,0.02477700,0.00400000,0.02077700,-0.04395102,-0.10033615,-0.06758874,-0.01167700
75825,20051010,EOG,-0.01867700,-0.00700000,-0.01167700,0.04893788,-0.03775037,-0.03517996,0.04006400
75825,20051011,EOG,0.03806400,-0.00200000,0.04006400,0.00363869,-0.02887845,-0.06898636,-0.02342000
75825,20051012,EOG,-0.02942000,-0.00600000,-0.02342000,-0.01816685,-0.00968170,-0.08884658,-0.03341200
75825,20051013,EOG,-0.03441200,-0.00100000,-0.03341200,-0.04912160,-0.02235063,-0.07122216,0.00763000
75825,20051014,EOG,0.01563000,0.00800000,0.00763000,-0.00178654,0.01386744,-0.08849476,0.02508900
75825,20051017,EOG,0.02808900,0.00300000,0.02508900,-0.02306809,-0.07749564,-0.11024118,-0.05350800
75825,20051018,EOG,-0.06350800,-0.01000000,-0.05350800,-0.01682852,-0.04302223,-0.07044580,0.01433000
75825,20051019,EOG,0.02933000,0.01500000,0.01433000,-0.10226085,-0.07398117,-0.08206691,-0.06430100
75825,20051020,EOG,-0.07930100,-0.01500000,-0.06430100,-0.05127855,-0.07959723,-0.09941075,0.00094700
75825,20051021,EOG,0.00294700,0.00200000,0.00094700,-0.03706784,-0.07677581,-0.06400289,0.02985700
75825,20051024,EOG,0.04685700,0.01700000,0.02985700,0.08043295,0.02326967,-0.05747028,0.04722800
