PERMNO,date,TICKER,C2C,indexC2C,C2CindexAdj,C2CindexAdjFwd3Days,C2CindexAdjFwd5Days,C2CindexAdjFwd10Days,C2CindexAdjFwd1Day
22509,20010102,PPG,-0.01889300,-0.02800000,0.00910700,,,,-0.04862400
22509,20010103,PPG,0.00137600,0.05000000,-0.04862400,0.04325959,,,0.08242900
22509,20010104,PPG,0.07142900,-0.01100000,0.08242900,0.04494649,,,0.01061500
22509,20010105,PPG,-0.01538500,-0.02600000,0.01061500,0.10594855,0.06742083,,0.01371900
22509,20010108,PPG,0.01171900,-0.00200000,0.01371900,-0.01568385,0.01679716,,-0.04003600
22509,20010109,PPG,-0.03603600,0.00400000,-0.04003600,-0.04846995,0.04162697,,-0.02201600
22509,20010110,PPG,-0.01201600,0.01000000,-0.02201600,-0.10011364,-0.07504407,,-0.03973000
22509,20010111,PPG,-0.02973000,0.01000000,-0.03973000,-0.05536818,-0.08110341,,0.00600000
22509,20010112,PPG,0.00000000,-0.00600000,0.00600000,-0.01401847,-0.07562422,-0.01024975,0.02046200
22509,20010116,PPG,0.02646200,0.00600000,0.02046200,-0.00057129,-0.06215717,-0.04686974,-0.02642300
22509,20010117,PPG,-0.02442300,0.00200000,-0.02642300,-0.01933858,-0.05317860,-0.01133960,-0.01260900
22509,20010118,PPG,0.00139100,0.01400000,-0.01260900,-0.05809623,-0.03281866,-0.10614914,-0.01961100
22509,20010119,PPG,-0.02361100,-0.00400000,-0.01961100,-0.02246146,-0.02917791,-0.10984447,0.00995700
22509,20010122,PPG,0.00995700,0.00000000,0.00995700,-0.01728145,-0.05632661,-0.13095073,-0.00736600
22509,20010123,PPG,0.00563400,0.01300000,-0.00736600,0.01098728,-0.02197047,-0.08487259,0.00820400
22509,20010124,PPG,0.01120400,0.00300000,0.00820400,0.02425252,0.01391816,-0.04000433,0.02300600
22509,20010125,PPG,0.01800600,-0.00500000,0.02300600,0.01661540,0.01951176,-0.01400782,-0.01432700
22509,20010126,PPG,-0.01632700,-0.00200000,-0.01432700,0.00724088,0.00822527,-0.02151111,-0.00119100
22509,20010129,PPG,0.00580900,0.00700000,-0.00119100,-0.01501447,0.01634838,-0.04105064,0.00070100
22509,20010130,PPG,0.00770100,0.00700000,0.00070100,0.01399949,0.02246051,0.00056356,0.01429700
22509,20010131,PPG,0.00829700,-0.00600000,0.01429700,0.02484016,0.00888461,0.02314067,0.00950800
22509,20010201,PPG,0.01450800,0.00500000,0.00950800,0.05906004,0.05937527,0.08049390,0.03471600
22509,20010202,PPG,0.01771600,-0.01700000,0.03471600,0.07461203,0.09079150,0.10115710,0.02892800
22509,20010205,PPG,0.03292800,0.00400000,0.02892800,0.07672793,0.10208195,0.12085566,0.01194900
22509,20010206,PPG,0.00994900,-0.00200000,0.01194900,0.03286902,0.07823429,0.10211878,-0.00768200
22509,20010207,PPG,-0.01568200,-0.00800000,-0.00768200,0.02485721,0.08940220,0.09980689,0.02091000
22509,20010208,PPG,0.01491000,-0.00600000,0.02091000,0.02496061,0.06614831,0.12769783,0.01219500
22509,20010209,PPG,-0.00080500,-0.01300000,0.01219500,0.03410987,0.03797468,0.13039212,0.00068900
22509,20010212,PPG,0.01268900,0.01200000,0.00068900,0.02020816,0.03300267,0.13547821,0.00721000
22509,20010213,PPG,-0.00179000,-0.00900000,0.00721000,0.01321278,0.04644320,0.12606094,0.00518800
22509,20010214,PPG,0.00318800,-0.00200000,0.00518800,0.02574269,0.03903816,0.13042930,0.01325100
22509,20010215,PPG,0.02125100,0.00800000,0.01325100,0.00951266,0.01749563,0.08368708,-0.00845100
22509,20010216,PPG,-0.02745100,-0.01900000,-0.00845100,0.02898875,0.04105739,0.07842346,0.02486300
22509,20010220,PPG,0.00786300,-0.01700000,0.02486300,0.02341124,0.04150745,0.07329033,0.00799800
22509,20010221,PPG,-0.01100200,-0.01900000,0.00799800,0.04446055,0.04836327,0.09393455,0.01211300
22509,20010222,PPG,0.01011300,-0.00200000,0.01211300,0.01703373,0.03214365,0.06989789,-0.00281100
22509,20010223,PPG,-0.00881100,-0.00600000,-0.00281100,0.02611455,0.05876991,0.07621542,0.01673700
22509,20010226,PPG,0.03373700,0.01700000,0.01673700,0.01521010,0.03521269,0.07560764,0.00155100
22509,20010227,PPG,-0.00644900,-0.00800000,0.00155100,0.03758294,0.04678098,0.08742072,0.01911400
22509,20010228,PPG,0.00511400,-0.01400000,0.01911400,0.02110576,0.03506918,0.08293810,0.00056600
22509,20010301,PPG,0.00156600,0.00100000,0.00056600,0.04922772,0.06842203,0.09822410,0.02944700
22509,20010302,PPG,0.02344700,-0.00600000,0.02944700,0.04404649,0.06452603,0.12410741,0.01347300
22509,20010305,PPG,0.01947300,0.00600000,0.01347300,0.03341289,0.05353463,0.08954558,-0.01000000
22509,20010306,PPG,0.00000000,0.01000000,-0.01000000,0.02614420,0.05752078,0.10703014,0.02227700
22509,20010307,PPG,0.02827700,0.00600000,0.02227700,0.02085944,0.06596219,0.10330236,0.00838100
22509,20010308,PPG,0.01038100,0.00200000,0.00838100,0.05651386,0.06096862,0.13284185,0.02536000
22509,20010309,PPG,0.00036000,-0.02500000,0.02536000,0.06123468,0.07438840,0.13892722,0.02858600
22509,20010312,PPG,-0.01441400,-0.04300000,0.02858600,0.00209995,0.03148370,0.08417638,-0.05229400
22509,20010313,PPG,-0.03729400,0.01500000,-0.05229400,-0.02465728,0.00705098,0.06074270,-0.00286400
22509,20010314,PPG,-0.02886400,-0.02600000,-0.00286400,-0.06693617,-0.01341789,0.04666649,-0.01382200
22509,20010315,PPG,-0.00782200,0.00600000,-0.01382200,-0.01265880,-0.03364108,0.02122303,0.00344500
22509,20010316,PPG,-0.01655500,-0.02000000,0.00344500,-0.00362594,-0.05727620,0.01513718,0.00685000
22509,20010319,PPG,0.02485000,0.01800000,0.00685000,0.02196735,0.00529102,0.03525539,0.01187600
22509,20010320,PPG,-0.01212400,-0.02400000,0.01187600,0.00527779,-0.00473148,0.00237576,-0.01307700
22509,20010321,PPG,-0.03107700,-0.01800000,-0.01307700,-0.03340181,-0.02388663,-0.03462433,-0.03358900
22509,20010322,PPG,-0.03758900,-0.00400000,-0.03358900,-0.08789462,-0.07017461,-0.09643957,-0.04441100
22509,20010323,PPG,-0.02441100,0.02000000,-0.04441100,-0.07530690,-0.07337224,-0.12497979,0.00270800
22509,20010326,PPG,0.01370800,0.01100000,0.00270800,-0.06142768,-0.10549581,-0.09573334,-0.01827300
22509,20010327,PPG,0.00772700,0.02600000,-0.01827300,0.00980246,-0.06875287,-0.07067494,0.02463900
22509,20010328,PPG,0.00063900,-0.02400000,0.02463900,-0.00087615,-0.04297072,-0.06443948,-0.00777100
22509,20010329,PPG,-0.01277100,-0.00500000,-0.00777100,-0.00011967,-0.01558084,-0.08581713,-0.01725300
22509,20010330,PPG,-0.00625300,0.01100000,-0.01725300,0.01506667,0.02214483,-0.05284850,0.04042300
22509,20010402,PPG,0.02842300,-0.01200000,0.04042300,0.02258835,0.03846644,-0.06310557,0.00024500
22509,20010403,PPG,-0.03375500,-0.03400000,0.00024500,0.08707548,0.06174273,-0.00655244,0.04819600
22509,20010404,PPG,0.04519600,-0.00300000,0.04819600,0.03144107,0.05538342,0.01136804,-0.01726100
22509,20010405,PPG,0.02673900,0.04400000,-0.01726100,0.02842024,0.06832997,0.05335464,-0.00299100
22509,20010406,PPG,-0.02299100,-0.02000000,-0.00299100,-0.01960702,0.02847752,0.05096803,0.00053800
22509,20010409,PPG,0.00853800,0.00800000,0.00053800,0.00929230,0.04271589,0.08228914,0.01202500
22509,20010410,PPG,0.03902500,0.02700000,0.01202500,0.00683685,-0.01379101,0.05121176,-0.00555200
22509,20010411,PPG,-0.00755200,-0.00200000,-0.00555200,-0.00274144,-0.00529097,0.05130891,-0.00879300
22509,20010412,PPG,0.00620700,0.01500000,-0.00879300,-0.01331024,-0.00114164,0.07024932,0.00101000
22509,20010416,PPG,-0.00199000,-0.00300000,0.00101000,-0.01706855,-0.01123091,0.01835727,-0.00920200
22509,20010417,PPG,0.00079800,0.01000000,-0.00920200,-0.01061946,-0.02563073,0.01711061,-0.00214000
22509,20010418,PPG,0.03686000,0.03900000,-0.00214000,-0.01338014,-0.02167526,-0.03744807,-0.00147000
22509,20010419,PPG,0.01153000,0.01300000,-0.00147000,0.00996425,0.00143745,-0.00408751,0.01298900
22509,20010420,PPG,0.00398900,-0.00900000,0.01298900,0.02539563,0.01478087,0.01425184,0.01367600
22509,20010423,PPG,-0.00132400,-0.01500000,0.01367600,0.03994792,0.03833732,0.02833045,0.01370500
22509,20010424,PPG,0.00170500,-0.01200000,0.01370500,0.02165672,0.03354440,0.00925017,-0.00597500
22509,20010425,PPG,0.01002500,0.01600000,-0.00597500,0.02072995,0.04754391,0.02876964,0.01260300
22509,20010426,PPG,0.01760300,0.00500000,0.01260300,-0.02050804,0.00767293,0.00951975,-0.02659400
22509,20010427,PPG,-0.01159400,0.01500000,-0.02659400,-0.02169629,-0.01387692,0.00048494,-0.00742600
22509,20010430,PPG,-0.01042600,-0.00300000,-0.00742600,-0.04802150,-0.04245654,-0.00455558,-0.01400000
22509,20010501,PPG,0.00000000,0.01400000,-0.01400000,-0.00507944,-0.01954976,0.01456667,0.01649800
22509,20010502,PPG,0.01749800,0.00100000,0.01649800,0.01714442,-0.01707795,0.03047265,0.01444500
22509,20010503,PPG,-0.00055500,-0.01500000,0.01444500,0.03765291,0.01588083,0.02389463,0.00616700
22509,20010504,PPG,0.02016700,0.01400000,0.00616700,0.01522658,0.01796895,0.00405484,-0.00543600
22509,20010507,PPG,-0.00743600,-0.00200000,-0.00543600,0.01410339,0.04559835,0.00356190,0.01332800
22509,20010508,PPG,0.01132800,-0.00200000,0.01332800,0.01525989,0.03620368,0.01729443,0.00745900
22509,20010509,PPG,0.00345900,-0.00400000,0.00745900,0.03260126,0.03361673,0.01625848,0.01161100
22509,20010510,PPG,0.01161100,-0.00000000,0.01161100,0.02016016,0.02794724,0.04431942,0.00118500
22509,20010511,PPG,-0.00681500,-0.00800000,0.00118500,0.02788300,0.04900993,0.06823842,0.01505700
22509,20010514,PPG,0.01805700,0.00300000,0.01505700,0.02331678,0.04268322,0.08963776,0.00709500
22509,20010515,PPG,0.00709500,0.00000000,0.00709500,0.03825547,0.05154806,0.08997146,0.01497300
22509,20010516,PPG,0.04297300,0.02800000,0.01497300,0.01733837,0.03417585,0.07001419,-0.00485700
22509,20010517,PPG,-0.00185700,0.00300000,-0.00485700,0.00474565,0.02790715,0.05723202,-0.00503000
22509,20010518,PPG,-0.00203000,0.00300000,-0.00503000,-0.01670070,0.00532551,0.05702392,-0.00667600
22509,20010521,PPG,0.00932400,0.01600000,-0.00667600,-0.01277620,-0.00318911,0.04141723,-0.00103100
22509,20010522,PPG,-0.00403100,-0.00300000,-0.00103100,-0.01098438,-0.02080180,0.02933990,-0.00339300
22509,20010523,PPG,-0.01939300,-0.01600000,-0.00339300,-0.04596662,-0.05788559,-0.02709405,-0.04255300
22509,20010524,PPG,-0.03955300,0.00300000,-0.04255300,-0.03446767,-0.04215387,-0.01733680,0.01074700
22509,20010525,PPG,-0.00125300,-0.01200000,0.01074700,-0.01605447,-0.01999900,-0.01598398,0.01606700
22509,20010529,PPG,0.00806700,-0.00800000,0.01606700,0.02913991,-0.01608041,-0.01982960,0.00284000
22509,20010530,PPG,-0.01316000,-0.01600000,0.00284000,0.01478771,-0.01696397,-0.03689994,-0.00401800
22509,20010531,PPG,0.00198200,0.00600000,-0.00401800,-0.01965047,0.00675987,-0.04999824,-0.01874800
22509,20010601,PPG,-0.01474800,0.00400000,-0.01874800,-0.02228276,-0.00321259,-0.04480561,0.00065900
22509,20010604,PPG,0.00565900,0.00500000,0.00065900,-0.02411523,-0.02497774,-0.04382449,-0.00573900
22509,20010605,PPG,0.00726100,0.01300000,-0.00573900,0.00061871,-0.02236512,-0.03728129,0.00559400
22509,20010606,PPG,-0.00540600,-0.01100000,0.00559400,-0.00178366,-0.02008461,-0.03643836,-0.00173900
22509,20010607,PPG,0.00326100,0.00500000,-0.00173900,0.00166505,-0.00334070,0.00350206,-0.00219700
22509,20010608,PPG,-0.01119700,-0.00900000,-0.00219700,-0.00646940,-0.00652192,-0.00962113,-0.00259400
22509,20010611,PPG,-0.01059400,-0.00800000,-0.00259400,-0.00717245,-0.00332670,-0.02771357,-0.00247700
22509,20010612,PPG,-0.00147700,0.00100000,-0.00247700,0.00952890,0.00559585,-0.01630964,0.01469800
22509,20010613,PPG,0.00369800,-0.01100000,0.01469800,0.00327909,-0.00140428,-0.02059358,-0.00870800
22509,20010614,PPG,-0.02670800,-0.01800000,-0.00870800,-0.00183779,-0.00669314,-0.00989511,-0.00768000
22509,20010615,PPG,-0.01268000,-0.00500000,-0.00768000,-0.01364860,-0.00179222,-0.00803945,0.00250800
22509,20010618,PPG,-0.00249200,-0.00500000,0.00250800,0.00795124,0.01342082,0.00987396,0.01333400
22509,20010619,PPG,0.01633400,0.00300000,0.01333400,0.01258477,-0.00415844,0.00141512,-0.00332800
22509,20010620,PPG,0.00567200,0.00900000,-0.00332800,-0.00989970,-0.01503486,-0.01577036,-0.01964800
22509,20010621,PPG,-0.00864800,0.01100000,-0.01964800,-0.03719856,-0.02172295,-0.02745188,-0.01432600
22509,20010622,PPG,-0.02332600,-0.00900000,-0.01432600,-0.03236168,-0.02304651,-0.02394663,0.00114600
22509,20010625,PPG,-0.00485400,-0.00600000,0.00114600,-0.00147901,-0.02420740,-0.01021140,0.01195100
22509,20010626,PPG,0.00995100,-0.00200000,0.01195100,0.02188024,-0.01205221,-0.01592042,0.00886400
22509,20010627,PPG,0.00386400,-0.00500000,0.00886400,0.00678108,-0.00659467,-0.02146406,-0.01411700
22509,20010628,PPG,-0.00211700,0.01200000,-0.01411700,0.00971597,0.02287900,0.00090791,0.01488600
22509,20010629,PPG,0.01388600,-0.00100000,0.01488600,-0.00088994,0.02038094,-0.00329668,-0.00163000
22509,20010702,PPG,0.00837000,0.01000000,-0.00163000,0.00787860,0.00265496,-0.02194710,-0.00535700
22509,20010703,PPG,-0.00735700,-0.00200000,-0.00535700,0.01362732,0.01453583,0.00206522,0.02055200
22509,20010705,PPG,0.00855200,-0.01200000,0.02055200,0.01345105,0.02664370,0.01978900,-0.00130800
22509,20010706,PPG,-0.02430800,-0.02300000,-0.00130800,0.03252824,0.02572721,0.04867834,0.01385800
22509,20010709,PPG,0.02085800,0.00700000,0.01385800,0.01259891,0.02726895,0.04769993,0.00056800
22509,20010710,PPG,-0.01343200,-0.01400000,0.00056800,0.01890584,0.03721232,0.04037265,0.00464300
22509,20010711,PPG,0.00364300,-0.00100000,0.00464300,0.00629039,0.01857515,0.03339665,0.00102900
22509,20010712,PPG,0.02502900,0.02400000,0.00102900,-0.01358174,0.00097979,0.02820325,-0.01886100
22509,20010713,PPG,-0.01286100,0.00600000,-0.01886100,-0.02014982,-0.01470668,0.01103059,-0.00202900
22509,20010716,PPG,-0.01302900,-0.01100000,-0.00202900,-0.02911513,-0.02413721,0.00428609,-0.00847000
22509,20010717,PPG,0.00153000,0.01000000,-0.00847000,0.01899860,0.00105558,0.03911171,0.02968700
22509,20010718,PPG,0.02368700,-0.00600000,0.02968700,0.03556916,0.01379193,0.03260785,0.01378000
22509,20010719,PPG,0.01978000,0.00600000,0.01378000,0.04486996,0.03397583,0.03572584,0.00098700
22509,20010720,PPG,-0.00201300,-0.00300000,0.00098700,0.00989384,0.03117851,0.01625878,-0.00453500
22509,20010723,PPG,-0.02053500,-0.01600000,-0.00453500,-0.01658645,0.02513277,0.00192909,-0.01339000
22509,20010724,PPG,-0.02939000,-0.01600000,-0.01339000,0.00543380,0.02003567,0.02155568,0.02450100
22509,20010725,PPG,0.04050100,0.01600000,0.02450100,-0.00262839,-0.00615855,0.00738901,-0.01278000
22509,20010726,PPG,-0.00278000,0.01000000,-0.01278000,0.01344589,-0.00529069,0.02837689,0.00190300
22509,20010727,PPG,0.00390300,0.00200000,0.00190300,-0.02212941,-0.01206029,0.01918802,-0.01122000
22509,20010730,PPG,-0.01222000,-0.00100000,-0.01122000,0.01437146,0.02644049,0.05215885,0.02399100
22509,20010731,PPG,0.02999100,0.00600000,0.02399100,0.00246617,-0.00853721,0.01186471,-0.00982300
22509,20010801,PPG,-0.00582300,0.00400000,-0.00982300,0.02586161,0.01615093,0.00964833,0.01155900
22509,20010802,PPG,0.01555900,0.00400000,0.01155900,0.00557810,0.01812258,0.01261353,0.00391900
22509,20010803,PPG,-0.00108100,-0.00500000,0.00391900,0.02244251,0.03678262,0.02469949,0.00703000
22509,20010806,PPG,-0.00397000,-0.01100000,0.00703000,0.00956778,0.01126834,0.03824820,-0.00137000
22509,20010807,PPG,0.00163000,0.00300000,-0.00137000,0.01027973,0.02552415,0.01752971,0.00470100
22509,20010808,PPG,-0.01229900,-0.01700000,0.00470100,-0.00065473,0.01009369,0.02607897,-0.00406000
22509,20010809,PPG,-0.00406000,-0.00000000,-0.00406000,0.00499964,0.01061118,0.02866563,0.00437600
22509,20010810,PPG,0.01037600,0.00600000,0.00437600,0.00369631,0.00704225,0.04380633,0.00340100
22509,20010813,PPG,0.00440100,0.00100000,0.00340100,0.01406798,0.01453152,0.02573120,0.00619100
22509,20010814,PPG,0.00219100,-0.00400000,0.00619100,0.00429792,0.00459593,0.03001521,-0.00520600
22509,20010815,PPG,-0.01220600,-0.00700000,-0.00520600,-0.00459297,0.00309290,0.01311508,-0.00558200
22509,20010816,PPG,-0.00258200,0.00300000,-0.00558200,-0.00892538,0.00041996,0.01077406,0.00165200
22509,20010817,PPG,-0.01534800,-0.01700000,0.00165200,-0.02556002,-0.02437886,-0.01745434,-0.02208500
22509,20010820,PPG,-0.01408500,0.00800000,-0.02208500,-0.00060863,-0.01110942,0.00305425,0.01981000
22509,20010821,PPG,0.00781000,-0.01200000,0.01981000,0.00125613,-0.00261679,0.00192615,0.00358400
22509,20010822,PPG,0.01058400,0.00700000,0.00358400,0.02730734,0.00659070,0.00964405,0.00374800
22509,20010823,PPG,0.00074800,-0.00300000,0.00374800,0.01128456,0.00886844,0.00908857,0.00373400
22509,20010824,PPG,0.02373400,0.02000000,0.00373400,0.01395386,0.03805170,0.01193212,0.00627800
22509,20010827,PPG,0.00127800,-0.00500000,0.00627800,0.01078871,0.01826967,0.00646063,0.00077900
22509,20010828,PPG,-0.01422100,-0.01500000,0.00077900,0.00423602,0.01166748,0.00892668,-0.00268600
22509,20010829,PPG,-0.01368600,-0.01100000,-0.00268600,0.00629647,0.01616651,0.02240143,0.00837400
22509,20010830,PPG,-0.00862600,-0.01700000,0.00837400,0.02484865,0.03132382,0.04070762,0.01964300
22509,20010831,PPG,0.02364300,0.00400000,0.01964300,0.04574447,0.04262575,0.08108143,0.01763000
22509,20010904,PPG,0.01663000,-0.00100000,0.01763000,0.03583640,0.04067132,0.05935993,-0.00172600
22509,20010905,PPG,-0.00272600,-0.00100000,-0.00172600,0.02561904,0.05321180,0.06431164,0.00997200
22509,20010906,PPG,-0.01202800,-0.02200000,0.00997200,-0.01570932,0.01975725,0.03506229,-0.02416500
22509,20010907,PPG,-0.04316500,-0.01900000,-0.02416500,-0.03789080,-0.02311049,0.00734048,-0.02508600
22509,20010910,PPG,-0.01908600,0.00600000,-0.02508600,-0.10657852,-0.09726032,-0.05847548,-0.06460100
22509,20010917,PPG,-0.11360100,-0.04900000,-0.06460100,-0.08341222,-0.09225253,-0.05651005,0.00378300
22509,20010918,PPG,-0.00221700,-0.00600000,0.00378300,-0.05320359,-0.09487488,-0.04759359,0.00755600
22509,20010919,PPG,-0.00844400,-0.01600000,0.00755600,-0.01806274,-0.09837470,-0.07859944,-0.02928700
22509,20010920,PPG,-0.06028700,-0.03100000,-0.02928700,-0.03071256,-0.08409053,-0.09949092,-0.01009600
22509,20010921,PPG,-0.02909600,-0.01900000,-0.01009600,-0.02396818,-0.01259039,-0.10427659,0.01725200
22509,20010924,PPG,0.05625200,0.03900000,0.01725200,-0.00100456,-0.02327147,-0.10954882,-0.00713900
22509,20010925,PPG,0.00186100,0.00900000,-0.00713900,0.00086163,-0.03907930,-0.12624094,-0.00846300
22509,20010926,PPG,-0.01346300,-0.00500000,-0.00846300,-0.01383505,-0.00783397,-0.10810592,0.00194100
22509,20010927,PPG,0.01294100,0.01100000,0.00194100,0.03390234,0.04601975,-0.05381020,0.04071800
22509,20010928,PPG,0.06271800,0.02200000,0.04071800,0.04035416,0.02381713,0.00967392,-0.00259000
22509,20011001,PPG,-0.00459000,-0.00200000,-0.00259000,0.03935017,0.03246767,0.00691891,0.00095600
22509,20011002,PPG,0.01295600,0.01200000,0.00095600,0.00501659,0.04993334,0.00596414,0.00666400
22509,20011003,PPG,0.02666400,0.02000000,0.00666400,0.00210464,0.04125375,0.03412432,-0.00539000
22509,20011004,PPG,-0.00739000,-0.00200000,-0.00539000,0.00970283,0.00808064,0.05648928,0.00842300
22509,20011005,PPG,0.01042300,0.00200000,0.00842300,-0.01416720,-0.00706967,0.01690093,-0.01705300
22509,20011008,PPG,-0.02505300,-0.00800000,-0.01705300,0.01077284,0.01208303,0.04562619,0.01990000
22509,20011009,PPG,0.01490000,-0.00500000,0.01990000,0.00710060,0.01011032,0.06168606,0.00466000
22509,20011010,PPG,0.02766000,0.02300000,0.00466000,0.06121134,0.05113043,0.09819882,0.03427500
22509,20011011,PPG,0.04927500,0.01500000,0.03427500,0.02301700,0.02528906,0.03449676,-0.01552100
22509,20011012,PPG,-0.02052100,-0.00500000,-0.01552100,0.01507617,0.04100945,0.03444985,-0.00263300
22509,20011015,PPG,-0.00463300,-0.00200000,-0.00263300,-0.01673301,0.02190829,0.03486733,0.00150000
22509,20011016,PPG,0.00850000,0.00700000,0.00150000,0.00423808,0.02192217,0.03242389,0.00535400
22509,20011017,PPG,-0.01364600,-0.01900000,0.00535400,0.00242827,-0.01533951,0.03321871,-0.00441100
22509,20011018,PPG,-0.01241100,-0.00800000,-0.00441100,-0.00631338,-0.00747049,0.01704942,-0.00747200
22509,20011019,PPG,-0.00247200,0.00500000,-0.00747200,0.01148361,0.01837605,0.06060072,0.02382700
22509,20011022,PPG,0.03882700,0.01500000,0.02382700,0.01922429,0.01970137,0.04252699,0.00301200
22509,20011023,PPG,-0.00198800,-0.00500000,0.00301200,0.02270634,0.01043958,0.03269574,-0.00398400
22509,20011024,PPG,-0.00398400,0.00000000,-0.00398400,0.00200446,0.01840566,0.00184130,0.00300000
22509,20011025,PPG,0.01700000,0.01400000,0.00300000,0.00266161,0.03008079,0.02166066,0.00367000
22509,20011026,PPG,0.00767000,0.00400000,0.00367000,0.00337793,0.00239988,0.02061068,-0.00312700
22509,20011029,PPG,-0.02712700,-0.02400000,-0.00312700,-0.00611610,-0.00720844,0.01198097,-0.00667100
22509,20011030,PPG,-0.02367100,-0.01700000,-0.00667100,-0.00644075,-0.00012986,0.01006455,0.00328800
22509,20011031,PPG,0.00328800,-0.00000000,0.00328800,-0.00279979,-0.00231133,0.01571562,0.00075600
22509,20011101,PPG,0.02375600,0.02300000,0.00075600,0.03105131,0.01968072,0.05043904,0.02620600
22509,20011102,PPG,0.02920600,0.00300000,0.02620600,0.01547457,0.01155726,0.01390835,-0.01186200
22509,20011105,PPG,0.00213800,0.01400000,-0.01186200,0.02251344,0.02737936,0.01893251,0.00769200
22509,20011106,PPG,0.02269200,0.01500000,0.00769200,-0.00299338,0.02515350,0.02442821,0.00129300
22509,20011107,PPG,-0.00170700,-0.00300000,0.00129300,-0.00202612,0.01247546,0.00988091,-0.01080900
22509,20011108,PPG,-0.00880900,0.00200000,-0.01080900,-0.00461087,-0.00906143,0.01117711,0.00495500
22509,20011109,PPG,0.00695500,0.00200000,0.00495500,-0.02440184,-0.01590377,-0.00473056,-0.01853000
22509,20011112,PPG,-0.02053000,-0.00200000,-0.01853000,0.00148268,-0.00820816,0.01897850,0.01567200
22509,20011113,PPG,0.03467200,0.01900000,0.01567200,0.01266186,0.00660601,0.03285540,0.01598600
22509,20011114,PPG,0.01798600,0.00200000,0.01598600,0.03886209,0.02431273,0.03812665,0.00625300
22509,20011115,PPG,0.00725300,0.00100000,0.00625300,0.02386210,0.02065073,0.01187284,0.00152300
22509,20011116,PPG,-0.00147700,-0.00300000,0.00152300,0.01148255,0.04462742,0.02815723,0.00360800
22509,20011119,PPG,0.01460800,0.01100000,0.00360800,0.00555124,0.02807999,0.02011383,0.00043900
22509,20011120,PPG,-0.00656100,-0.00700000,0.00043900,-0.00167682,0.00607330,0.01283912,-0.00564000
22509,20011121,PPG,-0.01064000,-0.00500000,-0.00564000,-0.00226091,0.00285132,0.02748730,0.00301900
22509,20011123,PPG,0.01501900,0.01200000,0.00301900,-0.01499973,-0.01103851,0.00954726,-0.01221100
22509,20011126,PPG,-0.00621100,0.00600000,-0.01221100,-0.00760824,-0.01270062,0.03092508,0.00166900
22509,20011127,PPG,-0.00533100,-0.00700000,0.00166900,-0.01093682,-0.01365206,0.01364812,-0.00066600
22509,20011128,PPG,-0.01866600,-0.01800000,-0.00066600,-0.00436268,-0.01361652,-0.00756749,-0.00548000
22509,20011129,PPG,0.00452000,0.01000000,-0.00548000,0.00288782,-0.00751628,-0.00477454,0.00906100
22509,20011130,PPG,0.00806100,-0.00100000,0.00906100,-0.00204779,-0.00102142,-0.01180128,-0.00557600
22509,20011203,PPG,-0.01357600,-0.00800000,-0.00557600,0.00135798,-0.00473521,-0.01731537,-0.00206500
22509,20011204,PPG,0.01093500,0.01300000,-0.00206500,-0.00040835,0.00331200,-0.01092043,0.00746700
22509,20011205,PPG,0.02946700,0.02200000,0.00746700,0.00175647,0.00522261,-0.00876285,-0.00352200
22509,20011206,PPG,-0.00652200,-0.00300000,-0.00352200,-0.01786948,-0.02558797,-0.03276905,-0.02117600
22509,20011207,PPG,-0.02917600,-0.00800000,-0.02117600,-0.03950450,-0.03582085,-0.03595444,-0.01593100
22509,20011210,PPG,-0.03193100,-0.01600000,-0.01593100,-0.02042800,-0.01717627,-0.02171628,0.01677600
22509,20011211,PPG,0.01377600,-0.00300000,0.01677600,-0.01823761,-0.04165679,-0.04009068,-0.01894700
22509,20011212,PPG,-0.01894700,0.00000000,-0.01894700,-0.00510637,-0.04041444,-0.03654963,-0.00272800
22509,20011213,PPG,-0.01872800,-0.01600000,-0.00272800,-0.03192744,-0.03098133,-0.05545144,-0.01095200
22509,20011214,PPG,-0.00795200,0.00300000,-0.01095200,-0.00774599,-0.01012824,-0.04544167,0.00603200
22509,20011217,PPG,0.01603200,0.01000000,0.00603200,0.01246463,-0.00977135,-0.02678034,0.01744400
22509,20011218,PPG,0.02544400,0.00800000,0.01744400,0.01048142,-0.00360591,-0.04545625,-0.01292400
22509,20011219,PPG,-0.00692400,0.00600000,-0.01292400,0.01576167,0.01077939,-0.03129705,0.01129300
22509,20011220,PPG,0.00329300,-0.00800000,0.01129300,-0.02906347,-0.00643057,-0.03762994,-0.02755200
22509,20011221,PPG,-0.02355200,0.00400000,-0.02755200,-0.01049405,-0.00640805,-0.01653272,0.00593100
22509,20011224,PPG,0.00593100,-0.00000000,0.00593100,-0.02732066,-0.02883947,-0.03852549,-0.00557200
22509,20011226,PPG,-0.00157200,0.00400000,-0.00557200,-0.00667823,-0.02302668,-0.02682389,-0.00700000
22509,20011227,PPG,0.00000000,0.00700000,-0.00700000,-0.00914729,-0.03105143,-0.02100278,0.00349600
22509,20011228,PPG,0.00649600,0.00300000,0.00349600,0.01919911,0.01963197,0.01345027,0.02253900
22509,20011231,PPG,0.01153900,-0.01100000,0.02253900,0.01310395,0.00050965,-0.00595378,-0.01296100
22509,20020102,PPG,-0.00696100,0.00600000,-0.01296100,0.01782027,0.01439729,-0.01517397,0.00813400
22509,20020103,PPG,0.01713400,0.00900000,0.00813400,0.01945836,0.04650637,0.02243409,0.02424500
22509,20020104,PPG,0.03024500,0.00600000,0.02424500,0.03737625,0.04719369,0.01541223,0.00451400
22509,20020107,PPG,-0.00148600,-0.00600000,0.00451400,0.01858443,0.01379116,0.03394908,-0.00977000
22509,20020108,PPG,-0.01377000,-0.00400000,-0.00977000,-0.00514067,0.02696601,0.02772999,0.00009400
22509,20020109,PPG,-0.00490600,-0.00500000,0.00009400,-0.04206720,-0.01475485,-0.00089134,-0.03304400
22509,20020110,PPG,-0.03204400,0.00100000,-0.03304400,-0.03967247,-0.04425936,-0.00144519,-0.00745400
22509,20020111,PPG,-0.01645400,-0.00900000,-0.00745400,-0.06813911,-0.07636515,-0.03414635,-0.02984900
22509,20020114,PPG,-0.03584900,-0.00600000,-0.02984900,-0.04444575,-0.07533434,-0.06357341,-0.00782600
22509,20020115,PPG,-0.00082600,0.00700000,-0.00782600,-0.05703953,-0.09366335,-0.06983275,-0.02080000
22509,20020116,PPG,-0.03680000,-0.01600000,-0.02080000,-0.05987529,-0.09357536,-0.10598968,-0.03232200
22509,20020117,PPG,-0.02232200,0.01000000,-0.03232200,-0.05129902,-0.08641715,-0.12420931,0.00034000
22509,20020118,PPG,-0.00966000,-0.01000000,0.00034000,-0.02252042,-0.04995516,-0.12013269,0.00921700
22509,20020122,PPG,0.00221700,-0.00700000,0.00921700,0.02948235,-0.02390441,-0.09600772,0.02009100
22509,20020123,PPG,0.02809100,0.00800000,0.02009100,0.03251673,-0.00033926,-0.09441706,0.00288500
22509,20020124,PPG,0.00688500,0.00400000,0.00288500,0.05088034,0.06008967,-0.03957524,0.02677800
22509,20020125,PPG,0.02777800,0.00100000,0.02677800,0.01651109,0.04658608,-0.04507737,-0.01289000
22509,20020128,PPG,-0.01289000,-0.00000000,-0.01289000,0.02226018,0.04553199,-0.00661694,0.00899200
22509,20020129,PPG,-0.02000800,-0.02900000,0.00899200,0.00092374,0.03028843,0.00549769,0.00476300
22509,20020130,PPG,0.01676300,0.01200000,0.00476300,0.02598691,0.03985915,0.03970012,0.01205600
22509,20020131,PPG,0.02705600,0.01500000,0.01205600,0.01396647,0.00979772,0.06985963,-0.00287900
22509,20020201,PPG,-0.00987900,-0.00700000,-0.00287900,0.01455423,0.02803148,0.07449006,0.00566900
22509,20020204,PPG,-0.01933100,-0.02500000,0.00566900,-0.00999108,0.00604897,0.05132557,-0.01316800
22509,20020205,PPG,-0.01716800,-0.00400000,-0.01316800,0.00562627,0.01442310,0.04414810,0.01333200
22509,20020206,PPG,0.00733200,-0.00600000,0.01333200,-0.00083139,0.00196241,0.04012851,-0.00085400
22509,20020207,PPG,-0.00385400,-0.00300000,-0.00085400,0.00446715,-0.00300427,0.00656564,-0.00812300
22509,20020208,PPG,0.00687700,0.01500000,-0.00812300,0.02054753,0.02035730,0.04870545,0.02954300
22509,20020211,PPG,0.04354300,0.01400000,0.02954300,0.02068359,0.03349863,0.03952849,-0.00070400
22509,20020212,PPG,-0.00470400,-0.00400000,-0.00070400,0.02371327,0.01464626,0.02934858,-0.00506800
22509,20020213,PPG,0.00493200,0.01000000,-0.00506800,-0.00721998,0.01400808,0.01544189,-0.00147600
22509,20020214,PPG,-0.00347600,-0.00200000,-0.00147600,0.01988670,0.04925595,0.04494116,0.02631800
22509,20020215,PPG,0.01531800,-0.01100000,0.02631800,0.01360964,0.00803991,0.02816011,-0.01056200
22509,20020219,PPG,-0.02956200,-0.01900000,-0.01056200,0.03049097,0.02409972,0.05850854,0.01541200
22509,20020220,PPG,0.02941200,0.01400000,0.01541200,0.03219091,0.05681252,0.07362612,0.02804100
22509,20020221,PPG,0.01204100,-0.01600000,0.02804100,0.05306578,0.06746698,0.08432594,0.00833400
22509,20020222,PPG,0.01633400,0.00800000,0.00833400,0.02598830,0.03024960,0.08141853,-0.01105600
22509,20020225,PPG,0.00694400,0.01800000,-0.01105600,0.00309512,0.04840673,0.05577101,0.00571400
22509,20020226,PPG,0.00571400,-0.00000000,0.00571400,-0.00212756,0.03517191,0.06005971,0.00313500
22509,20020227,PPG,0.00313500,0.00000000,0.00313500,0.01482298,0.01242537,0.07083319,0.00593000
22509,20020228,PPG,0.00293000,-0.00300000,0.00593000,0.01063409,0.00536111,0.07564332,0.00134300
22509,20020301,PPG,0.02434300,0.02300000,0.00134300,0.02104226,0.03044434,0.06293819,0.01312900
22509,20020304,PPG,0.03212900,0.01900000,0.01312900,-0.01449743,-0.00519240,0.04438977,-0.02762900
22509,20020305,PPG,-0.03462900,-0.00700000,-0.02762900,-0.01373789,-0.00649964,0.03005165,0.00198100
22509,20020306,PPG,0.01698100,0.01500000,0.00198100,-0.00920583,0.00514147,0.01832665,0.01713300
22509,20020307,PPG,0.01313300,-0.00400000,0.01713300,0.02039131,0.00457485,0.01029153,0.00085200
22509,20020308,PPG,0.00685200,0.00600000,0.00085200,0.01190333,-0.01457489,0.01524601,-0.00612700
22509,20020311,PPG,-0.00312700,0.00300000,-0.00612700,0.00262940,0.02224204,0.01755311,0.00790400
22509,20020312,PPG,0.00590400,-0.00200000,0.00790400,-0.00146803,0.01643835,0.01065881,-0.00320600
22509,20020313,PPG,-0.01320600,-0.01000000,-0.00320600,0.02163960,0.01647422,0.02244494,0.01717100
22509,20020314,PPG,0.01617100,-0.00100000,0.01717100,0.01386745,0.01566998,0.02077615,-0.00002500
22509,20020315,PPG,0.01097500,0.01100000,-0.00002500,0.02038872,0.02487950,0.01030865,0.00299000
22509,20020318,PPG,0.00199000,-0.00100000,0.00299000,0.00609135,0.02004229,0.04315536,0.00304200
22509,20020319,PPG,0.00704200,0.00400000,0.00304200,0.03584829,0.05393595,0.07082777,0.02962700
22509,20020320,PPG,0.01362700,-0.01600000,0.02962700,-0.00182962,0.00111413,0.01759888,-0.03401800
22509,20020321,PPG,-0.03201800,0.00200000,-0.03401800,-0.01645105,-0.01065856,0.00459941,-0.01189900
22509,20020322,PPG,-0.01589900,-0.00400000,-0.01189900,-0.05112705,-0.01991698,0.00381145,-0.00672700
22509,20020325,PPG,-0.02172700,-0.01500000,-0.00672700,-0.00174842,-0.00644817,0.01290709,0.01734900
22509,20020326,PPG,0.02334900,0.00600000,0.01734900,0.03106287,-0.01562193,0.03719042,0.02078400
22509,20020327,PPG,0.02578400,0.00500000,0.02078400,0.02928029,0.00960872,0.01072480,-0.00905200
22509,20020328,PPG,-0.00705200,0.00200000,-0.00905200,0.00494172,0.01521315,0.00419721,-0.00646700
22509,20020401,PPG,-0.00746700,-0.00100000,-0.00646700,-0.00754041,0.03047956,0.00901820,0.00789900
22509,20020402,PPG,-0.00110100,-0.00900000,0.00789900,0.00131480,0.01264985,0.00586376,-0.00010300
22509,20020403,PPG,-0.01010300,-0.01000000,-0.00010300,-0.01399829,-0.02898284,-0.04370941,-0.02196900
22509,20020404,PPG,-0.02096900,0.00100000,-0.02196900,-0.00252881,-0.00109309,0.00830185,0.01986900
22509,20020405,PPG,0.01686900,-0.00300000,0.01986900,0.00019251,0.00790742,0.02292824,0.00266000
22509,20020408,PPG,0.00466000,0.00200000,0.00266000,0.03453488,0.01179374,0.04215110,0.01182400
22509,20020409,PPG,0.00482400,-0.00700000,0.01182400,0.01774111,0.01519678,0.02789054,0.00303200
22509,20020410,PPG,0.01403200,0.01100000,0.00303200,0.02703593,0.04977759,0.01912157,0.01216500
22509,20020411,PPG,-0.01183500,-0.02400000,0.01216500,0.00986481,0.02438687,0.02274656,-0.00552600
22509,20020412,PPG,0.00147400,0.00700000,-0.00552600,0.00481943,0.01953589,0.02706054,-0.00193600
22509,20020415,PPG,-0.00993600,-0.00800000,-0.00193600,-0.00238776,0.01323756,0.02506188,0.00524800
22509,20020416,PPG,0.02824800,0.02300000,0.00524800,-0.00266724,0.00423687,0.01944471,-0.00577200
22509,20020417,PPG,-0.00777200,-0.00200000,-0.00577200,-0.03461437,-0.04188942,0.00762787,-0.03324400
22509,20020418,PPG,-0.03424400,-0.00100000,-0.03324400,-0.03107394,-0.02842536,-0.00409758,0.00805300
22509,20020419,PPG,0.00905300,0.00100000,0.00805300,-0.02397935,-0.02515227,-0.00546422,0.00116800
22509,20020422,PPG,-0.01383200,-0.01500000,0.00116800,0.00521898,-0.03297848,-0.02075606,-0.00385600
22509,20020423,PPG,-0.00985600,-0.00600000,-0.00385600,0.00589447,-0.01904795,-0.01492178,0.00872300
22509,20020424,PPG,0.00172300,-0.00700000,0.00872300,-0.00250554,0.00648144,-0.03435346,-0.00736400
22509,20020425,PPG,-0.00936400,-0.00200000,-0.00736400,0.02037124,0.01731019,-0.01015530,0.01920800
22509,20020426,PPG,0.00520800,-0.01400000,0.01920800,0.00517289,0.00981472,-0.01456232,-0.00650400
22509,20020429,PPG,-0.01650400,-0.01000000,-0.00650400,0.02218812,0.02332970,-0.01022647,0.00968300
22509,20020430,PPG,0.02068300,0.01100000,0.00968300,-0.00778792,0.00412851,-0.01499400,-0.01072100
22509,20020501,PPG,-0.00172100,0.00900000,-0.01072100,0.02681860,0.03921676,0.04478499,0.02746900
22509,20020502,PPG,0.02546900,-0.00200000,0.02746900,0.03290954,0.03597440,0.05231182,0.01597600
22509,20020503,PPG,0.00597600,-0.01000000,0.01597600,0.06522241,0.06532035,0.07315490,0.02178500
22509,20020506,PPG,0.00278500,-0.01900000,0.02178500,0.06178940,0.07944570,0.10229941,0.02410300
22509,20020507,PPG,0.02110300,-0.00300000,0.02410300,0.02505969,0.07009196,0.07408566,-0.02204600
22509,20020508,PPG,0.01595400,0.03800000,-0.02204600,0.01859013,0.05706866,0.09777544,0.01553900
22509,20020509,PPG,0.00053900,-0.01500000,0.01553900,0.00779960,0.05410784,0.09129792,0.01340600
22509,20020510,PPG,-0.00359400,-0.01700000,0.01340600,0.01658385,0.01967827,0.08743864,-0.01268800
22509,20020513,PPG,0.00631200,0.01900000,-0.01268800,0.00334281,-0.00266511,0.08026222,0.00229700
22509,20020514,PPG,0.02329700,0.02100000,0.00229700,0.01110849,0.04074245,0.11390787,0.02106100
22509,20020515,PPG,0.01506100,-0.00600000,0.02106100,0.00974124,0.01080819,0.06973759,-0.01372900
22509,20020516,PPG,-0.00672900,0.00700000,-0.01372900,0.00066642,-0.01005224,0.04637325,-0.00661000
22509,20020517,PPG,0.00139000,0.00800000,-0.00661000,-0.01083212,0.01262773,0.03315042,0.00935700
22509,20020520,PPG,-0.00364300,-0.01300000,0.00935700,0.01135828,0.01860773,0.01678276,0.00856300
22509,20020521,PPG,-0.00243700,-0.01100000,0.00856300,0.01713324,-0.00299548,0.03748995,-0.00076400
22509,20020522,PPG,0.00523600,0.00600000,-0.00076400,0.01061217,0.01344804,0.02471753,0.00267400
22509,20020523,PPG,0.01267400,0.01000000,0.00267400,0.00800124,0.02580734,0.01698087,0.00600000
22509,20020524,PPG,-0.00600000,-0.01200000,0.00600000,0.00658807,0.01437147,0.02721813,-0.00203800
22509,20020528,PPG,-0.01103800,-0.00900000,-0.00203800,0.00087979,0.00276064,0.02117082,-0.00306900
22509,20020529,PPG,-0.00906900,-0.00600000,-0.00306900,-0.01124714,-0.00275943,-0.00567791,-0.00632800
22509,20020530,PPG,-0.00932800,-0.00300000,-0.00632800,0.00420898,0.00803038,0.02121131,0.01381100
22509,20020531,PPG,0.01581100,0.00200000,0.01381100,0.00186965,-0.00309721,0.02164620,-0.00525500
22509,20020603,PPG,-0.03025500,-0.02500000,-0.00525500,0.00226540,-0.00689145,0.00703463,-0.00595100
22509,20020604,PPG,-0.00595100,0.00000000,-0.00595100,0.00485849,0.01211168,0.01472335,0.01658100
22509,20020605,PPG,0.02558100,0.00900000,0.01658100,0.01244278,0.02029382,0.01716660,0.00213300
22509,20020606,PPG,-0.01786700,-0.02000000,0.00213300,0.03093741,0.01894195,0.02629510,0.01244700
22509,20020607,PPG,0.01044700,-0.00200000,0.01244700,0.03176222,0.04265936,0.03773226,0.01749900
22509,20020610,PPG,0.02049900,0.00300000,0.01749900,0.02989152,0.04824999,0.03967670,0.00023100
22509,20020611,PPG,-0.01676900,-0.01700000,0.00023100,0.03531322,0.04929529,0.06080474,0.01769400
22509,20020612,PPG,0.02469400,0.00700000,0.01769400,0.01757254,0.04768236,0.06693749,0.00011800
22509,20020613,PPG,-0.00988200,-0.01000000,0.00011800,0.01661144,0.03401664,0.05195540,-0.00097700
22509,20020614,PPG,-0.00297700,-0.00200000,-0.00097700,0.00274465,0.02068913,0.06429249,0.00366600
22509,20020617,PPG,0.03266600,0.02900000,0.00366600,-0.00100386,0.01711282,0.06692328,-0.00355100
22509,20020618,PPG,-0.00255100,0.00100000,-0.00355100,0.02892889,0.02769750,0.07757540,0.02808300
22509,20020619,PPG,0.01108300,-0.01700000,0.02808300,0.04734605,0.05132041,0.10034650,0.02294900
22509,20020620,PPG,0.00994900,-0.01300000,0.02294900,0.05888953,0.06066048,0.09498557,0.00865100
22509,20020621,PPG,-0.00834900,-0.01700000,0.00865100,0.03247378,0.05663557,0.07799945,0.00105100
22509,20020624,PPG,0.00505100,0.00400000,0.00105100,0.03134757,0.08141180,0.10093275,0.02185800
22509,20020625,PPG,0.00485800,-0.01700000,0.02185800,0.01872224,0.04954493,0.07737842,-0.00416900
22509,20020626,PPG,-0.00716900,-0.00300000,-0.00416900,-0.00690654,0.00282199,0.05349220,-0.02488500
22509,20020627,PPG,-0.00688500,0.01800000,-0.02488500,0.01807973,0.04158140,0.10407233,0.04766900
22509,20020628,PPG,0.04666900,-0.00100000,0.04766900,0.02956341,0.04702027,0.10299487,0.00726800
22509,20020701,PPG,-0.01373200,-0.02100000,0.00726800,0.07278412,0.04404508,0.12415926,0.01903400
22509,20020702,PPG,-0.00196600,-0.02100000,0.01903400,0.00382112,0.02564759,0.07433773,-0.02257600
22509,20020703,PPG,-0.01657600,0.00600000,-0.02257600,-0.00820989,0.04695694,0.04918764,-0.00479000
22509,20020705,PPG,0.03221000,0.03700000,-0.00479000,-0.00592016,0.02085550,0.06281385,0.02153900
22509,20020708,PPG,0.00953900,-0.01200000,0.02153900,0.01324161,0.00961668,0.05609584,-0.00366700
22509,20020709,PPG,-0.02866700,-0.02500000,-0.00366700,0.04099690,0.01544718,0.05844939,0.02476700
22509,20020710,PPG,-0.00923300,-0.03400000,0.02476700,-0.01122194,0.00490418,0.02985726,-0.03312700
22509,20020711,PPG,-0.02612700,0.00700000,-0.03312700,-0.00995816,0.00696148,0.05101802,-0.00220200
22509,20020712,PPG,-0.00820200,-0.00600000,-0.00220200,-0.05503346,-0.03251008,-0.01321076,-0.02081100
22509,20020715,PPG,-0.02481100,-0.00400000,-0.02081100,-0.02056360,-0.02750311,-0.01822822,0.00192200
22509,20020716,PPG,-0.01607800,-0.01800000,0.00192200,-0.01409280,-0.04812146,-0.03224445,0.00477400
22509,20020717,PPG,0.01077400,0.00600000,0.00477400,0.03012335,0.00718697,0.01168602,0.02380200
22509,20020718,PPG,-0.00319800,-0.02700000,0.02380200,-0.01418714,-0.03109156,-0.02276486,-0.04148700
22509,20020719,PPG,-0.07948700,-0.03800000,-0.04148700,-0.02984865,-0.02368342,-0.05053812,-0.01307900
22509,20020722,PPG,-0.04607900,-0.03300000,-0.01307900,-0.03042642,-0.00467528,-0.02866021,0.02314400
22509,20020723,PPG,-0.00385600,-0.02700000,0.02314400,0.03374625,0.01260878,-0.03298477,0.02511100
22509,20020724,PPG,0.08211100,0.05700000,0.02511100,0.12303222,0.05471424,0.05929566,0.06851200
22509,20020725,PPG,0.06251200,-0.00600000,0.06851200,0.07247565,0.07886193,0.03892120,-0.02462000
22509,20020726,PPG,-0.00762000,0.01700000,-0.02462000,0.05426509,0.11121187,0.07085674,0.00796400
22509,20020729,PPG,0.06196400,0.05400000,0.00796400,-0.08010482,0.01454872,0.00753545,-0.05881800
22509,20020730,PPG,-0.05481800,0.00400000,-0.05881800,-0.04379845,0.00032991,0.01393437,0.01117100
22509,20020731,PPG,0.02117100,0.01000000,0.01117100,-0.02262975,-0.04159932,0.01585183,0.02564500
22509,20020801,PPG,-0.00435500,-0.03000000,0.02564500,0.00280533,-0.04931782,0.02640694,-0.03281800
22509,20020802,PPG,-0.05581800,-0.02300000,-0.03281800,0.02756369,-0.01811408,0.08137627,0.03715100
22509,20020805,PPG,0.00315100,-0.03400000,0.03715100,0.01425692,0.05048595,0.07167584,0.01138200
22509,20020806,PPG,0.04138200,0.03000000,0.01138200,0.05647076,0.04535312,0.04933386,0.00554600
22509,20020807,PPG,0.02554600,0.02000000,0.00554600,-0.00232112,0.00146446,-0.04112529,-0.01898900
22509,20020808,PPG,0.01401100,0.03300000,-0.01898900,-0.02349927,0.02801000,-0.02492053,-0.00932700
22509,20020809,PPG,-0.00532700,0.00400000,-0.00932700,-0.02908697,-0.01312396,-0.03158414,-0.00070100
22509,20020812,PPG,-0.00570100,-0.00500000,-0.00070100,-0.00209132,-0.01560376,0.03632347,0.00775200
22509,20020813,PPG,-0.01424800,-0.02200000,0.00775200,-0.02274579,-0.05180741,-0.00457431,-0.03065800
22509,20020814,PPG,0.00934200,0.04000000,-0.03065800,-0.03384311,-0.04374109,-0.04336035,-0.01147600
22509,20020815,PPG,0.00052400,0.01200000,-0.01147600,-0.04561605,-0.03733379,-0.01171205,-0.00306200
22509,20020816,PPG,-0.00506200,-0.00200000,-0.00306200,-0.01221014,-0.03506591,-0.05136232,0.00266700
22509,20020819,PPG,0.02666700,0.02400000,0.00266700,-0.01096068,-0.05400364,-0.07129841,-0.01026500
22509,20020820,PPG,-0.02426500,-0.01400000,-0.01026500,-0.01787722,-0.03264346,-0.08608852,-0.00984800
22509,20020821,PPG,0.00315200,0.01300000,-0.00984800,-0.02168731,-0.02264116,-0.06756454,-0.00143000
22509,20020822,PPG,0.01257000,0.01400000,-0.00143000,-0.01353973,-0.02150074,-0.05900252,-0.00234500
22509,20020823,PPG,-0.02534500,-0.02300000,-0.00234500,-0.00366664,-0.02356848,-0.05894128,0.00013700
22509,20020826,PPG,0.00813700,0.00800000,0.00013700,0.00741946,-0.00355314,-0.05744080,0.00978900
22509,20020827,PPG,-0.00421100,-0.01400000,0.00978900,0.00613536,0.00237391,-0.02918821,-0.00367400
22509,20020828,PPG,-0.02167400,-0.01800000,-0.00367400,0.01016579,0.00782928,-0.01366317,0.00432300
22509,20020829,PPG,0.00432300,-0.00000000,0.00432300,0.01150574,0.02135450,0.00023571,0.01114600
22509,20020830,PPG,0.00914600,-0.00200000,0.01114600,0.03473003,0.03952702,0.01667551,0.01960800
22509,20020903,PPG,-0.02239200,-0.04200000,0.01960800,0.02616854,0.02625255,0.02269561,-0.00491100
22509,20020904,PPG,0.01308900,0.01800000,-0.00491100,-0.00708948,0.00769733,0.00973436,-0.02222000
22509,20020905,PPG,-0.03822000,-0.01600000,-0.02222000,-0.03728284,-0.00574523,0.00210239,-0.00972400
22509,20020906,PPG,0.00727600,0.01700000,-0.00972400,-0.03495886,-0.01930078,0.00183741,-0.00277600
22509,20020909,PPG,0.00722400,0.01000000,-0.00277600,-0.03156111,-0.05903502,-0.01602882,-0.01858500
22509,20020910,PPG,-0.01158500,0.00700000,-0.01858500,-0.02244056,-0.05423532,-0.02654042,-0.00093000
22509,20020911,PPG,-0.00093000,-0.00000000,-0.00093000,-0.02706173,-0.03984359,-0.03070297,-0.00814700
22509,20020912,PPG,-0.03314700,-0.02500000,-0.00814700,-0.02034312,-0.04129245,-0.04569601,-0.01166700
22509,20020913,PPG,-0.00866700,0.00300000,-0.01166700,-0.02154727,-0.04037056,-0.05804047,-0.00216600
22509,20020916,PPG,-0.00116600,0.00100000,-0.00216600,-0.00684296,-0.01551073,-0.07178924,0.00677300
22509,20020917,PPG,-0.01322700,-0.02000000,0.00677300,0.00546679,-0.01374658,-0.06501501,0.00086000
22509,20020918,PPG,-0.00414000,-0.00500000,0.00086000,0.01486093,0.00163772,-0.03625041,0.00763300
22509,20020919,PPG,-0.02236700,-0.03000000,0.00763300,0.02266971,0.02683333,-0.01359268,0.01460300
22509,20020920,PPG,0.01660300,0.00200000,0.01460300,0.02543712,0.03226831,-0.00721912,0.00384300
22509,20020923,PPG,-0.01015700,-0.01400000,0.00384300,-0.01288439,-0.00435165,-0.01864584,-0.03068600
22509,20020924,PPG,-0.04768600,-0.01700000,-0.03068600,-0.05242057,-0.03031751,-0.04179575,-0.02669000
22509,20020925,PPG,-0.00169000,0.02500000,-0.02669000,-0.06997651,-0.05163973,-0.04746376,-0.01270900
22509,20020926,PPG,0.00529100,0.01800000,-0.01270900,-0.03668064,-0.06144084,-0.03366725,0.00189500
22509,20020927,PPG,-0.03010500,-0.03200000,0.00189500,-0.02461031,-0.07859790,-0.04442537,-0.01473700
22509,20020930,PPG,-0.02973700,-0.01500000,-0.01473700,0.00753945,-0.03195734,-0.03431821,0.02174500
22509,20021001,PPG,0.06174500,0.04000000,0.02174500,-0.02520992,-0.03497571,-0.06258196,-0.02994000
22509,20021002,PPG,-0.05394000,-0.02400000,-0.02994000,0.00350792,-0.00917378,-0.05825097,0.01389500
22509,20021003,PPG,0.00289500,-0.01100000,0.01389500,-0.02283184,-0.01807182,-0.07599889,-0.00709200
22509,20021004,PPG,-0.02909200,-0.02200000,-0.00709200,0.00391842,-0.00608923,-0.08117705,-0.00250100
22509,20021007,PPG,-0.02150100,-0.01900000,-0.00250100,0.00361865,-0.01263218,-0.04276544,0.01385600
22509,20021008,PPG,0.03085600,0.01700000,0.01385600,-0.02357630,-0.01666944,-0.04868049,-0.03399800
22509,20021009,PPG,-0.06099800,-0.02700000,-0.03399800,0.04875667,0.03670802,0.02578496,0.07342800
22509,20021010,PPG,0.10842800,0.03500000,0.07342800,0.04890820,0.06085820,0.03888870,0.01328800
22509,20021011,PPG,0.05228800,0.03900000,0.01328800,0.05258264,0.02754602,0.01983779,-0.03350100
22509,20021014,PPG,-0.02650100,0.00700000,-0.03350100,0.00368149,0.04081531,0.02399019,0.02594800
22509,20021015,PPG,0.07294800,0.04700000,0.02594800,-0.04268971,0.04386976,0.02201377,-0.03169900
22509,20021016,PPG,-0.05569900,-0.02400000,-0.03169900,0.03859055,0.01669050,0.05712303,0.04685000
22509,20021017,PPG,0.06885000,0.02200000,0.04685000,-0.01772842,-0.02836674,0.03304800,-0.02937000
22509,20021018,PPG,-0.02337000,0.00600000,-0.02937000,0.06270208,0.05444648,0.08927518,0.04473300
22509,20021021,PPG,0.06173300,0.01700000,0.04473300,-0.02029288,-0.00849739,0.03147354,-0.03275000
22509,20021022,PPG,-0.04375000,-0.01100000,-0.03275000,-0.00360424,0.01217893,0.05969488,-0.01294200
22509,20021023,PPG,-0.00594200,0.00700000,-0.01294200,-0.06034007,-0.04901233,-0.03762140,-0.01648000
22509,20021024,PPG,-0.03148000,-0.01500000,-0.01648000,-0.03806950,-0.02909914,-0.05874217,-0.00877100
22509,20021025,PPG,0.00822900,0.01700000,-0.00877100,-0.03756373,-0.08077755,-0.03682267,-0.01281200
22509,20021028,PPG,-0.02081200,-0.00800000,-0.01281200,-0.04524783,-0.07268667,-0.08117098,-0.02413200
22509,20021029,PPG,-0.03313200,-0.00900000,-0.02413200,-0.04003545,-0.06417000,-0.05549117,-0.00353400
22509,20021030,PPG,0.00646600,0.01000000,-0.00353400,-0.01490869,-0.03622655,-0.08377793,0.01306600
22509,20021031,PPG,0.00706600,-0.00600000,0.01306600,0.03395010,-0.00494743,-0.03408328,0.02382500
22509,20021101,PPG,0.04082500,0.01700000,0.02382500,0.02362636,-0.00532653,-0.08722733,-0.01331200
22509,20021104,PPG,-0.00531200,0.00800000,-0.01331200,0.00472333,0.01474648,-0.06185384,-0.00533000
22509,20021105,PPG,0.00267000,0.00800000,-0.00533000,-0.00008176,0.03813563,-0.03102070,0.01885700
22509,20021106,PPG,0.02785700,0.00900000,0.01885700,0.00508785,0.01536336,-0.02203840,-0.00788900
22509,20021107,PPG,-0.03088900,-0.02300000,-0.00788900,0.00017398,-0.01811463,-0.02300334,-0.01008700
22509,20021108,PPG,-0.01908700,-0.00900000,-0.01008700,-0.02098646,-0.00880449,-0.01406799,-0.00395800
22509,20021111,PPG,-0.02495800,-0.02100000,-0.00395800,0.01395780,0.02399059,0.03945826,0.02909300
22509,20021112,PPG,0.03709300,0.00800000,0.02909300,0.01359068,-0.00444226,0.03166370,-0.01066700
22509,20021113,PPG,-0.01066700,-0.00000000,-0.01066700,0.02558535,0.01025626,0.02600539,0.00692400
22509,20021114,PPG,0.03192400,0.02500000,0.00692400,-0.00730552,0.01774921,-0.00113634,-0.00313200
22509,20021115,PPG,0.00286800,0.00600000,-0.00313200,-0.00963306,0.00852224,-0.00091897,-0.01288000
22509,20021118,PPG,-0.02288000,-0.01000000,-0.01288000,-0.00814156,-0.01236253,0.01217779,0.00797200
22509,20021119,PPG,0.00397200,-0.00400000,0.00797200,-0.01601100,-0.01281809,-0.01679271,-0.01108700
22509,20021120,PPG,0.00791300,0.01900000,-0.01108700,-0.03226556,-0.04821582,-0.03824125,-0.02885100
22509,20021121,PPG,-0.00785100,0.02100000,-0.02885100,-0.06289202,-0.06692383,-0.05113380,-0.02261400
22509,20021122,PPG,-0.02561400,-0.00300000,-0.02261400,-0.04826289,-0.05190872,-0.04502573,0.00319800
22509,20021125,PPG,0.00619800,0.00300000,0.00319800,-0.00085619,-0.04040667,-0.05317591,0.01866400
22509,20021126,PPG,-0.00233600,-0.02100000,0.01866400,0.03972500,-0.01328024,-0.02676014,0.01713500
22509,20021127,PPG,0.04513500,0.02800000,0.01713500,0.06032884,0.03951581,-0.00950274,0.02316700
22509,20021129,PPG,0.02016700,-0.00300000,0.02316700,0.01460422,0.03707198,-0.03178151,-0.02495700
22509,20021202,PPG,-0.02695700,-0.00200000,-0.02495700,0.00097423,0.03657472,-0.01519974,0.00330300
22509,20021203,PPG,-0.01169700,-0.01500000,0.00330300,-0.02401070,0.01487319,-0.02604053,-0.00281400
22509,20021204,PPG,-0.00581400,-0.00300000,-0.00281400,0.00306152,0.00076902,-0.01204096,0.00260100
22509,20021205,PPG,-0.00939900,-0.01200000,0.00260100,0.00697709,-0.01446563,0.02340733,0.00728300
22509,20021206,PPG,0.01328300,0.00600000,0.00728300,0.01645149,0.01666223,0.05274229,0.00681100
22509,20021209,PPG,-0.01518900,-0.02200000,0.00681100,0.01543003,0.01500227,0.05128889,0.00121200
22509,20021210,PPG,0.01521200,0.01400000,0.00121200,0.01397481,0.02378657,0.03892213,0.00586800
22509,20021211,PPG,0.00686800,0.00100000,0.00586800,0.01862496,0.03276357,0.03242053,0.01123400
22509,20021212,PPG,0.00723400,-0.00400000,0.01123400,0.02532982,0.03329520,0.01783579,0.00828000
22509,20021213,PPG,-0.00472000,-0.01300000,0.00828000,0.03924092,0.04732955,0.06299457,0.01929900
22509,20021216,PPG,0.04329900,0.02400000,0.01929900,0.03269434,0.05035729,0.06523839,0.00503600
22509,20021217,PPG,-0.00296400,-0.00800000,0.00503600,0.01471748,0.03423242,0.05803419,-0.00900200
22509,20021218,PPG,-0.02200200,-0.01300000,-0.00900200,-0.00387909,0.02286323,0.05565231,0.00009600
22509,20021219,PPG,-0.00790400,-0.00800000,0.00009600,-0.00273346,0.02135593,0.05509673,0.00640800
22509,20021220,PPG,0.01940800,0.01300000,0.00640800,-0.00224324,-0.00621980,0.04001104,-0.00861300
22509,20021223,PPG,-0.00661300,0.00200000,-0.00861300,0.00128591,-0.00767630,0.04173594,0.00358800
22509,20021224,PPG,-0.00141200,-0.00500000,0.00358800,0.00079069,0.00721553,0.04155229,0.00582800
22509,20021226,PPG,0.00282800,-0.00300000,0.00582800,0.02143587,0.01940432,0.04214506,0.01217200
22509,20021227,PPG,-0.00382800,-0.01600000,0.01217200,0.02636948,0.02122280,0.04282801,0.00834700
22509,20021230,PPG,0.01334700,0.00500000,0.00834700,0.02135347,0.03067655,0.02395038,0.00079800
22509,20021231,PPG,0.00079800,0.00000000,0.00079800,0.00693058,0.02554948,0.01725017,-0.00249200
22509,20030102,PPG,0.03050800,0.03300000,-0.00249200,-0.00286697,0.01833189,0.02581443,-0.00116100
22509,20030103,PPG,-0.00116100,-0.00000000,-0.00116100,-0.00966429,-0.00013522,0.02045147,-0.00572700
22509,20030106,PPG,0.01627300,0.02200000,-0.00572700,-0.00671833,-0.00862322,0.01358910,0.00013800
22509,20030107,PPG,-0.00686200,-0.00700000,0.00013800,-0.01032361,-0.01431691,0.01722468,-0.00481000
22509,20030108,PPG,-0.01881000,-0.01400000,-0.00481000,-0.00284740,-0.00978131,0.01583947,0.00193100
22509,20030109,PPG,0.02093100,0.01900000,0.00193100,0.00582247,0.00030380,0.01900804,0.00881400
22509,20030110,PPG,0.00881400,-0.00000000,0.00881400,0.00118975,-0.00356495,-0.00391672,-0.00944600
22509,20030113,PPG,-0.01044600,-0.00100000,-0.00944600,-0.00307748,-0.00610454,-0.01505429,-0.00235300
22509,20030114,PPG,0.00364700,0.00600000,-0.00235300,-0.00611873,0.00452836,-0.00984058,0.00558500
22509,20030115,PPG,-0.00841500,-0.01400000,0.00558500,0.02203263,0.02127926,0.01183550,0.01885100
22509,20030116,PPG,0.01485100,-0.00400000,0.01885100,0.02844185,0.01679116,0.01742185,0.00449800
22509,20030117,PPG,-0.00950200,-0.01400000,0.00449800,0.01552783,0.01862800,0.01508306,-0.00721600
22509,20030121,PPG,-0.02321600,-0.01600000,-0.00721600,-0.00632238,0.01693520,0.01123864,-0.00375000
22509,20030122,PPG,-0.01375000,-0.01000000,-0.00375000,-0.00673391,0.01601019,0.02061433,0.00434000
22509,20030123,PPG,0.01434000,0.01000000,0.00434000,0.00238332,-0.00033638,0.01970576,0.00190400
22509,20030124,PPG,-0.02709600,-0.02900000,0.00190400,-0.00763957,-0.01778841,-0.00182428,-0.01386900
22509,20030127,PPG,-0.02986900,-0.01600000,-0.01386900,-0.00833332,-0.00785957,0.01034791,0.00364200
22509,20030128,PPG,0.01664200,0.01300000,0.00364200,-0.01648466,-0.01009931,0.00697356,-0.00597700
22509,20030129,PPG,0.00102300,0.00700000,-0.00597700,-0.01077584,-0.02175125,-0.00611972,-0.00827600
22509,20030130,PPG,-0.03127600,-0.02300000,-0.00827600,0.00255192,-0.00796382,-0.00783336,0.01738600
22509,20030131,PPG,0.03038600,0.01300000,0.01738600,0.00902899,0.00679261,-0.01178392,0.00052900
22509,20030203,PPG,0.00552900,0.00500000,0.00052900,0.02530739,0.01036322,0.00218592,0.00727900
22509,20030204,PPG,-0.00672100,-0.01400000,0.00727900,0.01340976,0.02172507,0.01131179,0.00561500
22509,20030205,PPG,0.00061500,-0.00500000,0.00561500,0.00750512,0.02534680,0.00199034,-0.00527000
22509,20030206,PPG,-0.01127000,-0.00600000,-0.00527000,-0.00107908,0.00659955,-0.00122332,-0.00139900
22509,20030207,PPG,-0.01139900,-0.01000000,-0.00139900,-0.00668653,0.00607074,0.01281107,-0.00003400
22509,20030210,PPG,0.00796600,0.00800000,-0.00003400,-0.00713902,-0.00675795,0.00340228,-0.00572700
22509,20030211,PPG,-0.01372700,-0.00800000,-0.00572700,-0.00161216,-0.00809011,0.01302924,0.00414300
22509,20030212,PPG,-0.00885700,-0.01300000,0.00414300,0.00891885,0.00747666,0.03232834,0.01072300
22509,20030213,PPG,0.00872300,-0.00200000,0.01072300,0.00258941,-0.00326527,0.00344711,-0.01248600
22509,20030214,PPG,0.00851400,0.02100000,-0.01248600,0.00261190,0.00092680,0.00707919,0.00421700
22509,20030218,PPG,0.02321700,0.01900000,0.00421700,-0.01374617,0.00150836,-0.00541060,-0.00517000
22509,20030219,PPG,-0.01217000,-0.00700000,-0.00517000,-0.00786876,-0.00965458,-0.01755637,-0.00670500
22509,20030220,PPG,-0.01670500,-0.01000000,-0.00670500,-0.00760784,-0.01628599,-0.00825603,0.00441300
22509,20030221,PPG,0.01741300,0.01300000,0.00441300,-0.00862330,-0.00980201,-0.01307922,-0.00621200
22509,20030224,PPG,-0.02421200,-0.01800000,-0.00621200,-0.01638286,-0.02767512,-0.02724809,-0.01448700
22509,20030225,PPG,-0.00748700,0.00700000,-0.01448700,-0.00315295,-0.00554830,-0.00417817,0.01752600
22509,20030226,PPG,0.00452600,-0.01300000,0.01752600,-0.00391045,-0.00588040,-0.01560568,-0.00706500
22509,20030227,PPG,0.00493500,0.01200000,-0.00706500,-0.00383786,-0.02418686,-0.04083226,-0.01439400
22509,20030228,PPG,-0.00939400,0.00500000,-0.01439400,-0.01814844,-0.01497028,-0.02460047,0.00325900
22509,20030303,PPG,-0.00474100,-0.00800000,0.00325900,-0.02876023,-0.01858500,-0.04493331,-0.01813100
22509,20030304,PPG,-0.03313100,-0.01500000,-0.01813100,-0.02956284,-0.05071223,-0.05492575,-0.01515100
22509,20030305,PPG,-0.00515100,0.01000000,-0.01515100,-0.04826075,-0.05847533,-0.06394471,-0.01621400
22509,20030306,PPG,-0.02521400,-0.00900000,-0.01621400,-0.03153784,-0.04531562,-0.06773160,-0.00014800
22509,20030307,PPG,0.00785200,0.00800000,-0.00014800,-0.00785006,-0.03962080,-0.05362815,0.00835600
22509,20030310,PPG,-0.01764400,-0.02600000,0.00835600,0.01082005,-0.01984048,-0.03720930,0.00263500
22509,20030311,PPG,-0.00536500,-0.00800000,0.00263500,0.02603186,0.00958013,-0.04001181,0.01546500
22509,20030312,PPG,0.01946500,0.00400000,0.01546500,0.01845390,0.02679500,-0.03435328,-0.00018400
22509,20030313,PPG,0.03381600,0.03400000,-0.00018400,0.01724497,0.02816493,-0.01905537,0.00133800
22509,20030314,PPG,0.00333800,0.00200000,0.00133800,-0.00469760,0.01456819,-0.02879127,-0.00572500
22509,20030317,PPG,0.02927500,0.03500000,-0.00572500,0.01352228,0.03070623,0.00787785,0.01733200
22509,20030318,PPG,0.02133200,0.00400000,0.01733200,0.00362659,0.00501870,0.01531834,-0.00815600
22509,20030319,PPG,0.00084400,0.00900000,-0.00815600,0.00670073,0.00249495,0.03079628,-0.00242200
22509,20030320,PPG,-0.00042200,0.00200000,-0.00242200,0.02037012,0.03391965,0.06531700,0.03119700
22509,20030321,PPG,0.05419700,0.02300000,0.03119700,0.01525764,0.02465522,0.04128939,-0.01180900
22509,20030324,PPG,-0.04680900,-0.03500000,-0.01180900,0.00728589,-0.00329715,0.02734957,-0.01053100
22509,20030325,PPG,0.00146900,0.01200000,-0.01053100,-0.02670804,-0.00025002,0.00472594,-0.00505900
22509,20030326,PPG,-0.01005900,-0.00500000,-0.00505900,-0.02528287,-0.00766248,-0.00561020,-0.00985400
22509,20030327,PPG,-0.01185400,-0.00200000,-0.00985400,-0.01219901,-0.03334907,-0.00427684,0.00257200
22509,20030328,PPG,-0.00342800,-0.00600000,0.00257200,-0.01987938,-0.03485131,-0.01159780,-0.01295400
22509,20030331,PPG,-0.03095400,-0.01800000,-0.01295400,0.00339506,-0.01130242,-0.01461296,0.01439700
22509,20030401,PPG,0.02639700,0.01200000,0.01439700,0.00230408,-0.00512675,-0.00535802,0.00144800
22509,20030402,PPG,0.02744800,0.02600000,0.00144800,-0.00783201,-0.01829136,-0.02573307,-0.02276600
22509,20030403,PPG,-0.02776600,-0.00500000,-0.02276600,-0.02695760,-0.02595064,-0.05808424,-0.00494700
22509,20030404,PPG,-0.00194700,0.00300000,-0.00494700,-0.01475928,0.00067639,-0.03550983,0.01330700
22509,20030407,PPG,0.01430700,0.00100000,0.01330700,-0.01000064,-0.03198372,-0.04257318,-0.01809000
22509,20030408,PPG,-0.02009000,-0.00200000,-0.01809000,-0.00972561,-0.03666678,-0.04193938,-0.00475700
22509,20030409,PPG,-0.01875700,-0.01400000,-0.00475700,-0.00895356,-0.00081872,-0.01899034,0.01422700
22509,20030410,PPG,0.02022700,0.00600000,0.01422700,0.00703555,0.00198546,-0.02364338,-0.00210000
22509,20030411,PPG,-0.00610000,-0.00400000,-0.00210000,-0.00123121,-0.02415479,-0.02439147,-0.01330100
22509,20030414,PPG,0.00569900,0.01900000,-0.01330100,-0.01120981,-0.00185471,-0.03422970,0.00424400
22509,20030415,PPG,0.01024400,0.00600000,0.00424400,-0.01566213,-0.00369982,-0.04071132,-0.00655400
22509,20030416,PPG,-0.01855400,-0.01200000,-0.00655400,-0.00547120,-0.02097959,-0.02167343,-0.00303000
22509,20030417,PPG,0.01297000,0.01600000,-0.00303000,-0.00891948,-0.01819128,-0.01595117,0.00069800
22509,20030421,PPG,-0.00130200,-0.00200000,0.00069800,0.00461251,0.00205718,-0.02286185,0.00690000
22509,20030422,PPG,0.02890000,0.02200000,0.00690000,0.01029582,0.00033237,-0.00157812,0.00256000
22509,20030423,PPG,0.01056000,0.00800000,0.00256000,0.00957392,0.00731766,0.00356521,0.00005900
22509,20030424,PPG,-0.00794100,-0.00800000,0.00005900,-0.01064563,-0.00344155,-0.02455238,-0.01317500
22509,20030425,PPG,-0.02717500,-0.01400000,-0.01317500,0.00010281,0.00965511,-0.00892020,0.01383200
22509,20030428,PPG,0.03183200,0.01800000,0.01383200,0.00545850,0.00808907,0.01041921,0.00539400
22509,20030429,PPG,0.00839400,0.00300000,0.00539400,0.03042082,0.01608624,0.01693846,0.01057300
22509,20030430,PPG,0.00957300,-0.00100000,0.01057300,0.01537351,0.01547578,0.02350178,-0.00064900
22509,20030501,PPG,-0.00164900,-0.00100000,-0.00064900,0.00534279,0.02525044,0.02174566,-0.00467600
22509,20030502,PPG,0.01032400,0.01500000,-0.00467600,-0.00642434,0.00966939,0.01978233,-0.00110900
22509,20030505,PPG,-0.00510900,-0.00400000,-0.00110900,-0.01200667,-0.00200596,0.00619089,-0.00615100
22509,20030506,PPG,0.00184900,0.00800000,-0.00615100,-0.01570633,-0.02116375,-0.00516161,-0.00853300
22509,20030507,PPG,-0.01353300,-0.00500000,-0.00853300,-0.02066256,-0.02650611,-0.01150765,-0.00621300
22509,20030508,PPG,-0.01621300,-0.01000000,-0.00621300,-0.01781440,-0.02498518,-0.00115176,-0.00312600
22509,20030509,PPG,0.01087400,0.01400000,-0.00312600,-0.00669382,-0.02153248,-0.01213591,0.00281900
22509,20030512,PPG,0.01581900,0.01300000,0.00281900,0.00319062,-0.01183150,-0.01403238,0.00341500
22509,20030513,PPG,0.00041500,-0.00300000,0.00341500,-0.00397897,-0.01339734,-0.03467958,-0.01007600
22509,20030514,PPG,-0.01307600,-0.00300000,-0.01007600,-0.00424572,-0.00467748,-0.03185123,0.00251500
22509,20030515,PPG,0.01051500,0.00800000,0.00251500,-0.00362133,0.00261167,-0.02272980,0.00404100
22509,20030516,PPG,0.00104100,-0.00300000,0.00404100,0.01425974,0.00753819,-0.01344620,0.00774400
22509,20030519,PPG,-0.01725600,-0.02500000,0.00774400,0.01266413,0.00517720,-0.00638532,0.00100000
22509,20030520,PPG,0.00000000,-0.00100000,0.00100000,0.01022794,0.01679171,0.00358166,0.00150000
22509,20030521,PPG,0.00550000,0.00400000,0.00150000,0.00088163,0.01269995,0.00840982,-0.00163600
22509,20030522,PPG,0.00736400,0.00900000,-0.00163600,-0.00072114,0.00813274,0.01083067,-0.00058200
22509,20030523,PPG,0.00041800,0.00100000,-0.00058200,-0.00454093,-0.00198626,0.00583962,-0.00225500
22509,20030527,PPG,0.01774500,0.02000000,-0.00225500,-0.00635375,-0.00657017,-0.00108043,-0.00343600
22509,20030528,PPG,-0.00143600,0.00200000,-0.00343600,-0.01356788,-0.01593736,0.00133358,-0.00770900
22509,20030529,PPG,-0.01170900,-0.00400000,-0.00770900,-0.01542294,-0.01858977,-0.00538902,-0.00419100
22509,20030530,PPG,0.01080900,0.01500000,-0.00419100,-0.00820425,-0.01418051,-0.00568501,0.00381400
22509,20030602,PPG,0.00781400,0.00400000,0.00381400,0.00016431,-0.01122658,-0.01360823,0.00050900
22509,20030603,PPG,0.00550900,0.00500000,0.00050900,0.01594343,0.00367144,-0.00302153,0.01138000
22509,20030604,PPG,0.02638000,0.01500000,0.01138000,-0.00273131,-0.00314340,-0.01981520,-0.01428100
22509,20030605,PPG,-0.01028100,0.00400000,-0.01428100,-0.00849896,-0.00419240,-0.02333481,-0.00519100
22509,20030606,PPG,-0.00719100,-0.00200000,-0.00519100,-0.02456658,-0.01351422,-0.02814746,-0.00550500
22509,20030609,PPG,-0.01750500,-0.01200000,-0.00550500,-0.01227739,-0.01568745,-0.02724020,-0.00162800
22509,20030610,PPG,0.00737200,0.00900000,-0.00162800,-0.00381555,-0.02333026,-0.02052587,0.00346700
22509,20030611,PPG,0.01646700,0.01300000,0.00346700,0.02191482,0.01053711,0.00779302,0.01960000
22509,20030612,PPG,0.02060000,0.00100000,0.01960000,0.02214873,0.01473980,0.01086856,-0.00097400
22509,20030613,PPG,-0.01097400,-0.01000000,-0.00097400,0.01420804,0.01641549,0.00236539,-0.00456400
22509,20030616,PPG,0.01743600,0.02200000,-0.00456400,0.00484469,0.02871825,0.01255503,0.01029500
22509,20030617,PPG,0.01129500,0.00100000,0.01029500,-0.00651168,0.01222313,-0.01152206,-0.01205700
22509,20030618,PPG,-0.01405700,-0.00200000,-0.01205700,0.01404028,0.00870713,0.01936664,0.01597700
22509,20030619,PPG,0.00097700,-0.01500000,0.01597700,0.00905540,0.01512886,0.03020132,0.00524400
22509,20030620,PPG,0.00624400,0.00100000,0.00524400,0.02156912,0.01964064,0.03659708,0.00062000
22509,20030623,PPG,-0.01338000,-0.01400000,0.00062000,0.00616135,0.00991417,0.03838564,0.00035800
22509,20030624,PPG,0.00235800,0.00200000,0.00035800,0.00655123,0.02741721,0.03988684,0.00564700
22509,20030625,PPG,-0.00235300,-0.00800000,0.00564700,0.01100161,0.01674504,0.02545332,0.00492000
22509,20030626,PPG,0.01592000,0.01100000,0.00492000,0.00692145,0.00781245,0.02282324,-0.00354200
22509,20030627,PPG,-0.01354200,-0.01000000,-0.00354200,-0.00163946,0.00436930,0.02383009,-0.00290300
22509,20030630,PPG,-0.00490300,-0.00200000,-0.00290300,-0.03461652,-0.02451059,-0.01416913,-0.02869400
22509,20030701,PPG,-0.02069400,0.00800000,-0.02869400,-0.03747140,-0.03625704,-0.00809334,-0.00576100
22509,20030702,PPG,0.00623900,0.01200000,-0.00576100,-0.04327136,-0.04895111,-0.03262945,-0.00900000
22509,20030703,PPG,-0.01700000,-0.00800000,-0.00900000,-0.01170841,-0.04361286,-0.03508256,0.00338000
22509,20030707,PPG,0.02238000,0.01900000,0.00338000,-0.00928106,-0.04430713,-0.03966624,-0.00339800
22509,20030708,PPG,-0.00039800,0.00300000,-0.00339800,-0.00086938,-0.01586613,-0.04045672,-0.00076900
22509,20030709,PPG,-0.00676900,-0.00600000,-0.00076900,-0.00093719,-0.00669695,-0.04264586,0.00317800
22509,20030710,PPG,-0.00982200,-0.01300000,0.00317800,0.00114681,0.00108881,-0.04853968,-0.00129600
22509,20030711,PPG,0.00870400,0.01000000,-0.00129600,-0.00044710,-0.00460205,-0.04814047,-0.00238800
22509,20030714,PPG,0.00361200,0.00600000,-0.00238800,0.00318147,0.00555756,-0.03853267,0.00679900
22509,20030715,PPG,0.00379900,-0.00300000,0.00679900,0.00985813,0.01176688,-0.00395422,0.00540200
22509,20030716,PPG,-0.00059800,-0.00600000,0.00540200,0.04546911,0.04239543,0.03522418,0.03332800
22509,20030717,PPG,0.02132800,-0.01200000,0.03332800,0.05016738,0.05495527,0.05680086,0.01083400
22509,20030718,PPG,0.02283400,0.01200000,0.01083400,0.07155047,0.08377558,0.07888370,0.02625700
22509,20030721,PPG,0.01125700,-0.01500000,0.02625700,0.04590502,0.08576359,0.09120720,0.00773600
22509,20030722,PPG,0.01773600,0.01000000,0.00773600,0.02647894,0.07226805,0.08438981,-0.00767400
22509,20030723,PPG,-0.00667400,0.00100000,-0.00767400,0.01493541,0.05312407,0.09752955,0.01483900
22509,20030724,PPG,0.00783900,-0.00700000,0.01483900,0.01784551,0.05308315,0.11109926,0.01059300
22509,20030725,PPG,0.02759300,0.01700000,0.01059300,0.02386714,0.02406137,0.11086372,-0.00178500
22509,20030728,PPG,-0.00378500,-0.00200000,-0.00178500,0.02232340,0.02952385,0.11764200,0.01333100
22509,20030729,PPG,0.00633100,-0.00700000,0.01333100,0.01835620,0.04449530,0.11970129,0.00685400
22509,20030730,PPG,0.00485400,-0.00200000,0.00685400,0.02754001,0.03687785,0.09245916,0.00719700
22509,20030731,PPG,0.01019700,0.00300000,0.00719700,0.00811737,0.01954208,0.07282239,-0.00576100
22509,20030801,PPG,-0.01576100,-0.01000000,-0.00576100,-0.01008124,0.00992552,0.03410107,-0.01145600
22509,20030804,PPG,-0.00845600,0.00300000,-0.01145600,-0.00962846,0.00398130,0.03292325,0.00729400
22509,20030805,PPG,-0.01070600,-0.01800000,0.00729400,-0.01120491,-0.00985256,0.03332524,-0.00731900
22509,20030806,PPG,-0.00531900,0.00200000,-0.00731900,-0.02224346,-0.03860551,-0.00408776,-0.02267400
22509,20030807,PPG,-0.01567400,0.00700000,-0.02267400,-0.01935155,-0.02305240,-0.00359069,0.01092000
22509,20030808,PPG,0.01492000,0.00400000,0.01092000,-0.01486309,-0.01455683,-0.00460839,-0.00281400
22509,20030811,PPG,0.00018600,0.00300000,-0.00281400,0.00973599,-0.02090231,-0.01639945,0.00153500
22509,20030812,PPG,0.01153500,0.01000000,0.00153500,0.00067786,-0.01142212,-0.02111135,0.00195400
22509,20030813,PPG,-0.00404600,-0.00600000,0.00195400,0.00968433,0.01801622,-0.02227220,0.00611200
22509,20030814,PPG,0.01311200,0.00700000,0.00611200,0.00860687,0.00739967,-0.01616234,0.00054700
22509,20030815,PPG,0.00054700,0.00000000,0.00054700,0.01366982,0.01733016,0.00219082,0.00685000
22509,20030818,PPG,0.01585000,0.00900000,0.00685000,0.01312791,0.02139799,0.00033845,0.00560800
22509,20030819,PPG,0.00860800,0.00300000,0.00560800,0.00857909,0.01542922,0.00391446,-0.00386800
22509,20030820,PPG,-0.00586800,-0.00200000,-0.00386800,0.00389339,0.01139259,0.03005457,0.00218700
22509,20030821,PPG,0.00518700,0.00300000,0.00218700,-0.00645405,0.00584132,0.01338747,-0.00476900
22509,20030822,PPG,-0.01476900,-0.01000000,-0.00476900,-0.00827229,-0.00660937,0.01038612,-0.00569600
22509,20030825,PPG,-0.00469600,0.00100000,-0.00569600,-0.01851868,-0.02020067,0.00039449,-0.00826200
22509,20030826,PPG,-0.00526200,0.00300000,-0.00826200,-0.01881248,-0.02126992,-0.00657915,-0.00492500
22509,20030827,PPG,-0.00492500,0.00000000,-0.00492500,-0.00974300,-0.02003341,-0.00913098,0.00353300
22509,20030828,PPG,0.00953300,0.00600000,0.00353300,-0.00938721,-0.02338407,-0.01765915,-0.00790500
22509,20030829,PPG,-0.00290500,0.00500000,-0.00790500,-0.00868521,-0.02208956,-0.02862818,-0.00416600
22509,20030902,PPG,0.00983400,0.01400000,-0.00416600,-0.00843725,-0.00994800,-0.03048907,0.00375500
22509,20030903,PPG,0.00775500,0.00400000,0.00375500,-0.01481071,-0.01942716,-0.04089119,-0.01416900
22509,20030904,PPG,-0.01216900,0.00200000,-0.01416900,-0.01205493,-0.02430736,-0.04423350,-0.00160900
22509,20030905,PPG,-0.00760900,-0.00600000,-0.00160900,-0.01382245,-0.01445960,-0.03828738,0.00204800
22509,20030908,PPG,0.01204800,0.01000000,0.00204800,-0.00895241,-0.01938528,-0.04163624,-0.00931600
22509,20030909,PPG,-0.01731600,-0.00800000,-0.00931600,-0.01636689,-0.03155976,-0.04197803,-0.00910900
22509,20030910,PPG,-0.02110900,-0.01200000,-0.00910900,-0.02197372,-0.02166804,-0.04113733,-0.00387500
22509,20030911,PPG,0.00112500,0.00500000,-0.00387500,0.00415573,-0.00322608,-0.02743954,0.01747900
22509,20030912,PPG,0.01947900,0.00200000,0.01747900,0.00264282,-0.01566731,-0.03003258,-0.01069800
22509,20030915,PPG,-0.01469800,-0.00400000,-0.01069800,0.01013656,-0.00316888,-0.02259215,0.00352700
22509,20030916,PPG,0.01752700,0.01400000,0.00352700,-0.01205963,0.00140173,-0.03066297,-0.00469700
22509,20030917,PPG,-0.00769700,-0.00300000,-0.00469700,0.00013830,0.00679838,-0.01557024,0.00140400
22509,20030918,PPG,0.01440400,0.01300000,0.00140400,-0.00161727,-0.00904524,-0.01226818,0.00172600
22509,20030919,PPG,-0.00127400,-0.00300000,0.00172600,-0.00181798,-0.00309455,-0.01878233,-0.00486400
22509,20030922,PPG,-0.01786400,-0.01300000,-0.00486400,0.00313880,-0.00017144,-0.00333999,0.00643500
22509,20030923,PPG,0.01243500,0.00600000,0.00643500,-0.00905491,-0.00610465,-0.00481954,-0.01051400
22509,20030924,PPG,-0.02951400,-0.01900000,-0.01051400,-0.00694821,-0.00990954,-0.00363283,-0.00268900
22509,20030925,PPG,-0.00868900,-0.00600000,-0.00268900,-0.01179315,-0.01034356,-0.01913043,0.00123600
22509,20030926,PPG,-0.00476400,-0.00600000,0.00123600,0.00529507,0.00087961,-0.00216390,0.00684900
22509,20030929,PPG,0.01684900,0.01000000,0.00684900,0.00214886,-0.01090049,-0.01106247,-0.00575800
22509,20030930,PPG,-0.01675800,-0.01100000,-0.00575800,-0.00688860,-0.00827406,-0.01424664,-0.00782900
22509,20031001,PPG,0.01417100,0.02200000,-0.00782900,-0.00863768,-0.00057356,-0.01062370,0.00498600
22509,20031002,PPG,0.00698600,0.00200000,0.00498600,0.00216667,0.00311545,-0.00770963,0.00487600
22509,20031003,PPG,0.01387600,0.00900000,0.00487600,0.01514897,0.00131912,0.00220274,0.00506200
22509,20031006,PPG,0.00906200,0.00400000,0.00506200,0.01265097,0.01008151,-0.00171373,0.00251500
22509,20031007,PPG,0.00751500,0.00500000,0.00251500,0.01026590,0.02046158,0.01207084,0.00263500
22509,20031008,PPG,-0.00236500,-0.00500000,0.00263500,-0.00094228,0.00911374,0.00867742,-0.00609400
22509,20031009,PPG,-0.00109400,0.00500000,-0.00609400,-0.01170926,-0.00428681,-0.00129750,-0.00831000
22509,20031010,PPG,-0.00931000,-0.00100000,-0.00831000,-0.00299923,0.00219941,0.00359309,0.01161100
22509,20031013,PPG,0.01861100,0.00700000,0.01161100,-0.00526985,-0.00871740,0.00100577,-0.00834100
22509,20031014,PPG,-0.00434100,0.00400000,-0.00834100,0.01117002,-0.00344993,0.01713516,0.00790600
22509,20031015,PPG,0.00490600,-0.00300000,0.00790600,-0.00290482,0.00021587,0.00942669,-0.00245800
22509,20031016,PPG,0.00054200,0.00300000,-0.00245800,0.02163720,0.02507381,0.02087585,0.01614400
22509,20031017,PPG,0.00614400,-0.01000000,0.01614400,0.00857334,0.00813474,0.01043913,-0.00518000
22509,20031020,PPG,-0.00018000,0.00500000,-0.00518000,0.01146345,0.01696356,0.00830320,0.00043700
22509,20031021,PPG,0.00143700,0.00100000,0.00043700,-0.00312821,0.01044561,0.00714060,0.00154700
22509,20031022,PPG,-0.01345300,-0.01500000,0.00154700,0.01177526,0.02273664,0.02318150,0.00990900
22509,20031023,PPG,0.01290900,0.00300000,0.00990900,0.02021333,0.01557102,0.04077155,0.00894900
22509,20031024,PPG,0.00394900,-0.00500000,0.00894900,0.01947347,0.02121861,0.02938890,0.00050300
22509,20031027,PPG,0.00250300,0.00200000,0.00050300,0.00869814,0.02015455,0.03737396,-0.00091000
22509,20031028,PPG,0.01409000,0.01500000,-0.00091000,0.00215672,0.02145877,0.03195118,0.00251700
22509,20031029,PPG,0.00351700,0.00100000,0.00251700,0.02263211,0.03239242,0.05561718,0.02062800
22509,20031030,PPG,0.01962800,-0.00100000,0.02062800,0.00989365,0.00965485,0.02559772,-0.01311000
22509,20031031,PPG,-0.00911000,0.00400000,-0.01311000,0.00948437,0.01131141,0.03318869,0.00206100
22509,20031103,PPG,0.01006100,0.00800000,0.00206100,-0.00783086,0.01536426,0.03596521,0.00328300
22509,20031104,PPG,-0.00171700,-0.00500000,0.00328300,0.00463537,0.01204097,0.03405714,-0.00072000
22509,20031105,PPG,-0.00172000,-0.00100000,-0.00072000,0.00140531,-0.00976571,0.02258246,-0.00117500
22509,20031106,PPG,0.00482500,0.00600000,-0.00117500,0.01023450,0.01568632,0.02585183,0.01208500
22509,20031107,PPG,0.00708500,-0.00500000,0.01208500,0.00430431,0.00683759,0.01828797,-0.00652600
22509,20031110,PPG,-0.01252600,-0.00600000,-0.00652600,0.01420506,0.01237437,0.02790708,0.00881900
22509,20031111,PPG,0.00781900,-0.00100000,0.00881900,-0.00341469,0.00756174,0.01979030,-0.00565500
22509,20031112,PPG,0.00534500,0.01100000,-0.00565500,0.00130587,0.00679321,-0.00294666,-0.00188600
22509,20031113,PPG,-0.00188600,-0.00000000,-0.00188600,-0.00118703,0.00101415,0.01665500,0.00628200
22509,20031114,PPG,-0.00171800,-0.00800000,0.00628200,-0.00148198,0.00167035,0.00847294,-0.00587600
22509,20031117,PPG,-0.01187600,-0.00600000,-0.00587600,-0.00071299,-0.00809422,0.00408739,-0.00110300
22509,20031118,PPG,-0.01010300,-0.00900000,-0.00110300,-0.00739286,-0.00299806,0.00441281,-0.00043400
22509,20031119,PPG,0.00756600,0.00800000,-0.00043400,-0.00365253,-0.00322795,0.00339137,-0.00212900
22509,20031120,PPG,-0.01012900,-0.00800000,-0.00212900,-0.00246403,-0.00933656,-0.00830680,0.00011700
22509,20031121,PPG,0.00211700,0.00200000,0.00011700,0.00583055,0.00425861,0.00593332,0.00794400
22509,20031124,PPG,0.02394400,0.01600000,0.00794400,0.00516127,0.00252033,-0.00578664,-0.00286000
22509,20031125,PPG,-0.00086000,0.00200000,-0.00286000,0.01134659,0.00919351,0.00598206,0.00615300
22509,20031126,PPG,0.01015300,0.00400000,0.00615300,-0.00067794,0.00743264,0.00393262,-0.00391800
22509,20031128,PPG,-0.00391800,-0.00000000,-0.00391800,0.03675402,0.04270884,0.03210529,0.03432200
22509,20031201,PPG,0.04532200,0.01100000,0.03432200,0.02014202,0.02363155,0.02825860,-0.00959800
22509,20031202,PPG,-0.01259800,-0.00300000,-0.00959800,0.02705753,0.02943355,0.03264196,0.00282900
22509,20031203,PPG,0.00082900,-0.00200000,0.00282900,-0.00259865,0.02751998,0.03750653,0.00427100
22509,20031204,PPG,0.00927100,0.00500000,0.00427100,0.00387385,0.02806264,0.03640302,-0.00315500
22509,20031205,PPG,-0.01115500,-0.00800000,-0.00315500,0.01046428,0.00352884,0.04646016,0.00942300
22509,20031208,PPG,0.01642300,0.00700000,0.00942300,0.03498079,0.04238053,0.06744042,0.02874900
22509,20031209,PPG,0.01974900,-0.00900000,0.02874900,0.01898700,0.01999866,0.05004103,-0.01884600
22509,20031210,PPG,-0.01984600,-0.00100000,-0.01884600,0.00481387,0.01098469,0.03892325,-0.00479500
22509,20031211,PPG,0.00620500,0.01100000,-0.00479500,-0.00885746,0.02988069,0.05917500,0.01517600
22509,20031212,PPG,0.01817600,0.00300000,0.01517600,0.01621801,0.02578768,0.02937232,0.00568100
22509,20031215,PPG,-0.00031900,-0.00600000,0.00568100,0.01405214,-0.00998861,0.03263226,-0.00684100
22509,20031216,PPG,0.00015900,0.00700000,-0.00684100,0.00585075,0.01647519,0.03702335,0.00697100
22509,20031217,PPG,0.00797100,0.00100000,0.00697100,-0.00144888,0.01981390,0.03120013,-0.00156200
22509,20031218,PPG,0.01043800,0.01200000,-0.00156200,-0.00567839,-0.00681004,0.02321053,-0.01095600
22509,20031219,PPG,-0.01095600,-0.00000000,-0.01095600,-0.00782388,-0.00776118,0.01846646,0.00486200
22509,20031222,PPG,0.00886200,0.00400000,0.00486200,-0.01389875,-0.00863713,-0.01886123,-0.00770600
22509,20031223,PPG,-0.00470600,0.00300000,-0.00770600,-0.00309879,-0.01579231,0.00045075,-0.00020600
22509,20031224,PPG,-0.00220600,-0.00200000,-0.00020600,-0.00048607,-0.00669456,0.01301158,0.00747700
22509,20031226,PPG,0.00947700,0.00200000,0.00747700,0.00329201,0.00037312,-0.00656427,-0.00402000
22509,20031229,PPG,0.00798000,0.01200000,-0.00402000,-0.01007537,-0.01801228,-0.02618593,-0.01335000
22509,20031230,PPG,-0.01335000,0.00000000,-0.01335000,-0.01230317,-0.00503655,-0.01385259,0.00523700
22509,20031231,PPG,0.00723700,0.00200000,0.00523700,-0.01110278,-0.00779228,-0.02379981,-0.00293600
22509,20040102,PPG,-0.00593600,-0.00300000,-0.00293600,0.00538009,-0.01231782,-0.01917098,0.00308500
22509,20040105,PPG,0.01508500,0.01200000,0.00308500,-0.01106668,-0.01928947,-0.01928735,-0.01106200
22509,20040106,PPG,-0.01006200,0.00100000,-0.01106200,-0.01503841,-0.01275926,-0.03098600,-0.00684800
22509,20040107,PPG,-0.00484800,0.00200000,-0.00684800,-0.01498336,-0.01502287,-0.02028026,0.00301400
22509,20040108,PPG,0.00801400,0.00500000,0.00301400,-0.01639901,-0.02460297,-0.03260866,-0.01251200
22509,20040109,PPG,-0.02151200,-0.00900000,-0.01251200,-0.00313410,-0.02096744,-0.03356015,0.00663000
22509,20040112,PPG,0.01163000,0.00500000,0.00663000,-0.00266636,-0.00652251,-0.02572431,0.00342500
22509,20040113,PPG,-0.00157500,-0.00500000,0.00342500,0.00413255,-0.00562610,-0.01844217,-0.00595000
22509,20040114,PPG,0.00205000,0.00800000,-0.00595000,-0.00648364,-0.01252916,-0.02757599,-0.00399100
22509,20040115,PPG,-0.00299100,0.00100000,-0.00399100,-0.04698678,-0.03723492,-0.06172364,-0.03699700
22509,20040116,PPG,-0.02999700,0.00700000,-0.03699700,-0.05217468,-0.05470492,-0.07495010,-0.01169500
22509,20040120,PPG,-0.01269500,-0.00100000,-0.01169500,-0.05998368,-0.07002182,-0.07609327,-0.01179200
22509,20040121,PPG,-0.00379200,0.00800000,-0.01179200,-0.03880150,-0.07859274,-0.08415055,-0.01569900
22509,20040122,PPG,-0.01869900,-0.00300000,-0.01569900,-0.03461741,-0.08160016,-0.09321141,-0.00744300
22509,20040123,PPG,-0.00944300,-0.00200000,-0.00744300,-0.02862334,-0.05174645,-0.08840570,-0.00553100
22509,20040126,PPG,0.00646900,0.01200000,-0.00553100,-0.00493515,-0.03221718,-0.08574659,0.00797000
22509,20040127,PPG,-0.00203000,-0.01000000,0.00797000,0.00976217,-0.01320322,-0.08141057,0.00722000
22509,20040128,PPG,-0.00678000,-0.01400000,0.00722000,0.00071108,-0.01205519,-0.08912278,-0.01455600
22509,20040129,PPG,-0.00955600,0.00500000,-0.01455600,-0.00100773,0.00150304,-0.07937514,0.00627400
22509,20040130,PPG,0.00327400,-0.00300000,0.00627400,-0.01554858,-0.00025782,-0.05106258,-0.00726300
22509,20040202,PPG,-0.00326300,0.00400000,-0.00726300,-0.01732269,-0.02425638,-0.05558107,-0.01633400
22509,20040203,PPG,-0.01533400,0.00100000,-0.01633400,-0.01997557,-0.02812256,-0.04046019,0.00345100
22509,20040204,PPG,-0.00454900,-0.00800000,0.00345100,-0.00014632,-0.00112901,-0.01311152,0.01294100
22509,20040205,PPG,0.01494100,0.00200000,0.01294100,0.02021587,-0.00387268,-0.00231806,0.00362600
22509,20040206,PPG,0.01662600,0.01300000,0.00362600,0.02862348,0.01509763,0.01456274,0.01151800
22509,20040209,PPG,0.00851800,-0.00300000,0.01151800,0.01806803,0.03483987,0.00927507,0.00260100
22509,20040210,PPG,0.00760100,0.00500000,0.00260100,0.02089402,0.03856655,0.00852478,0.00643500
22509,20040211,PPG,0.01743500,0.01100000,0.00643500,0.01199782,0.02779398,0.02649757,0.00285800
22509,20040212,PPG,-0.00214200,-0.00500000,0.00285800,-0.00457294,0.00956483,0.00575811,-0.01362900
22509,20040213,PPG,-0.01862900,-0.00500000,-0.01362900,-0.01368502,-0.00491666,0.01032395,-0.00288100
22509,20040217,PPG,0.00711900,0.01000000,-0.00288100,-0.02288537,-0.01391529,0.02055559,-0.00643400
22509,20040218,PPG,-0.01043400,-0.00400000,-0.00643400,0.00382743,-0.00702887,0.03075741,0.01318400
22509,20040219,PPG,0.00918400,-0.00400000,0.01318400,0.00204147,-0.01439313,0.01252936,-0.00458300
22509,20040220,PPG,-0.00758300,-0.00300000,-0.00458300,0.01200823,0.00271142,0.01227116,0.00350900
22509,20040223,PPG,0.00050900,-0.00300000,0.00350900,0.00022697,0.00681192,0.00204878,0.00132100
22509,20040224,PPG,-0.00067900,-0.00200000,0.00132100,0.01154185,0.02007025,0.00612503,0.00670000
22509,20040225,PPG,0.01070000,0.00400000,0.00670000,-0.00503078,-0.00608525,-0.01300112,-0.01293100
22509,20040226,PPG,-0.01193100,0.00100000,-0.01293100,-0.00823112,-0.00338192,-0.01770565,-0.00187100
22509,20040227,PPG,-0.00187100,0.00000000,-0.00187100,-0.01285846,-0.00487717,-0.00212383,0.00209800
22509,20040301,PPG,0.01209800,0.01000000,0.00209800,-0.00581065,-0.01219049,-0.00520674,-0.00595300
22509,20040302,PPG,-0.01195300,-0.00600000,-0.00595300,-0.00850354,-0.02325399,-0.00332497,-0.00455600
22509,20040303,PPG,-0.00255600,0.00200000,-0.00455600,-0.01160267,-0.01151694,-0.01755194,-0.00112100
22509,20040304,PPG,0.00187900,0.00300000,-0.00112100,-0.00974243,-0.01370973,-0.01708223,-0.00404600
22509,20040305,PPG,-0.00204600,0.00200000,-0.00404600,0.00064260,-0.00980141,-0.01472412,0.00577900
22509,20040308,PPG,-0.00222100,-0.00800000,0.00577900,-0.00080804,-0.00642719,-0.01851120,-0.00256200
22509,20040309,PPG,-0.00856200,-0.00600000,-0.00256200,-0.00884542,-0.01387196,-0.03634452,-0.01211600
22509,20040310,PPG,-0.02711600,-0.01500000,-0.01211600,0.00134938,0.00303481,-0.00801309,0.01624300
22509,20040311,PPG,0.00124300,-0.01500000,0.01624300,0.01450503,0.01747909,0.00415811,0.01087200
22509,20040312,PPG,0.02287200,0.01200000,0.01087200,0.02121902,0.00618008,-0.00335598,-0.00558700
22509,20040315,PPG,-0.01958700,-0.01400000,-0.00558700,0.00362799,0.00741703,0.00105755,-0.00140300
22509,20040316,PPG,0.00459700,0.00600000,-0.00140300,-0.01109848,0.01606133,0.00157431,-0.00408000
22509,20040317,PPG,0.00792000,0.01200000,-0.00408000,-0.01740757,-0.01236657,-0.00881227,-0.01174700
22509,20040318,PPG,-0.01274700,-0.00100000,-0.01174700,-0.01130680,-0.01813148,-0.00053576,0.00445600
22509,20040319,PPG,-0.00654400,-0.01100000,0.00445600,-0.00694622,-0.01241500,-0.00588832,0.00018200
22509,20040322,PPG,-0.01281800,-0.01300000,0.00018200,0.00803132,-0.00752891,-0.00007616,0.00352500
22509,20040323,PPG,0.00252500,-0.00100000,0.00352500,-0.00166522,-0.00873664,0.00673308,-0.00537500
22509,20040324,PPG,-0.00737500,-0.00200000,-0.00537500,0.00616294,0.01068234,-0.00151906,0.00810300
22509,20040325,PPG,0.02410300,0.01600000,0.00810300,-0.00234048,0.00139275,-0.01675341,-0.00484000
22509,20040326,PPG,-0.00584000,-0.00100000,-0.00484000,0.01712732,0.01512052,0.00209721,0.01370000
22509,20040329,PPG,0.02670000,0.01300000,0.01370000,0.00891632,0.01168752,0.00367803,0.00016100
22509,20040330,PPG,0.00416100,0.00400000,0.00016100,0.02170145,0.02528328,0.01535087,0.00756100
22509,20040331,PPG,0.00656100,-0.00100000,0.00756100,0.01782179,0.02697767,0.03786038,0.00992300
22509,20040401,PPG,0.01492300,0.00500000,0.00992300,0.02408932,0.03893696,0.04037888,0.00621000
22509,20040402,PPG,0.01521000,0.00900000,0.00621000,0.00665921,0.01465597,0.03074724,-0.00949800
22509,20040405,PPG,-0.00149800,0.00800000,-0.00949800,-0.00236225,0.01543815,0.02799590,0.00100000
22509,20040406,PPG,-0.00100000,-0.00200000,0.00100000,-0.01125999,0.00469595,0.03057273,-0.00284600
22509,20040407,PPG,-0.00984600,-0.00700000,-0.00284600,0.00580983,0.00254042,0.02982449,0.00774200
22509,20040408,PPG,0.00674200,-0.00100000,0.00774200,0.00403540,-0.00442947,0.03431498,-0.00081400
22509,20040412,PPG,0.00418600,0.00500000,-0.00081400,0.00955598,0.00762094,0.02230297,0.00266300
22509,20040413,PPG,-0.01133700,-0.01400000,0.00266300,0.00487200,0.00963070,0.02512393,0.00302400
22509,20040414,PPG,0.00202400,-0.00100000,0.00302400,0.02617241,0.03332294,0.03856040,0.02071000
22509,20040415,PPG,0.02171000,0.00100000,0.02071000,0.02805334,0.02973236,0.03254374,0.00405900
22509,20040416,PPG,0.00905900,0.00500000,0.00405900,0.03506221,0.04042460,0.03597042,0.00977400
22509,20040419,PPG,0.01077400,0.00100000,0.00977400,0.01470324,0.03859188,0.04569845,0.00098100
22509,20040420,PPG,-0.01501900,-0.01600000,0.00098100,0.01139790,0.03645958,0.04574617,0.00073900
22509,20040421,PPG,0.00573900,0.00500000,0.00073900,0.00692568,0.02102775,0.05513262,0.00523700
22509,20040422,PPG,0.01923700,0.01400000,0.00523700,-0.00238130,0.00845145,0.03854217,-0.00819800
22509,20040423,PPG,-0.00719800,0.00100000,-0.00819800,-0.00149924,0.00024734,0.04066994,0.00158300
22509,20040426,PPG,-0.00241700,-0.00400000,0.00158300,-0.00442888,0.00147030,0.04080031,0.00219900
22509,20040427,PPG,0.00419900,0.00200000,0.00219900,-0.01189264,-0.01509792,0.02082984,-0.01559200
22509,20040428,PPG,-0.02959200,-0.01400000,-0.01559200,-0.01721294,-0.02350995,-0.00366417,-0.00393200
22509,20040429,PPG,-0.01193200,-0.00800000,-0.00393200,-0.01840017,-0.01475781,-0.00675258,0.00080000
22509,20040430,PPG,-0.00520000,-0.00600000,0.00080000,-0.01431307,-0.02736853,-0.02712541,-0.01136100
22509,20040503,PPG,-0.00236100,0.00900000,-0.01136100,-0.01350692,-0.03232920,-0.03151474,-0.00301400
22509,20040504,PPG,-0.00101400,0.00200000,-0.00301400,-0.01219784,-0.01514828,-0.02998271,0.00222900
22509,20040505,PPG,0.00422900,0.00200000,0.00222900,0.01046032,-0.00008162,-0.02358574,0.01121200
22509,20040506,PPG,0.00421200,-0.00700000,0.01121200,0.00098102,-0.01314019,-0.02719364,-0.01220000
22509,20040507,PPG,-0.02620000,-0.01400000,-0.01220000,-0.00417556,-0.00495713,-0.03134479,-0.00306000
22509,20040510,PPG,-0.01406000,-0.01100000,-0.00306000,-0.01253634,0.00060081,-0.03104767,0.00273900
22509,20040511,PPG,0.01073900,0.00800000,0.00273900,-0.00341924,-0.00453867,-0.01928038,-0.00304500
22509,20040512,PPG,-0.00104500,0.00200000,-0.00304500,0.01352907,-0.00219179,-0.00227173,0.01372900
22509,20040513,PPG,0.01272900,-0.00100000,0.01372900,0.01219680,0.01177037,-0.00157961,0.00151700
22509,20040514,PPG,0.00051700,-0.00100000,0.00151700,0.00652588,0.00626016,0.00111332,-0.00844600
22509,20040517,PPG,-0.01944600,-0.01100000,-0.00844600,-0.01231606,-0.00184117,-0.00120346,-0.00542000
22509,20040518,PPG,0.00158000,0.00700000,-0.00542000,-0.01392948,0.00102979,-0.00349511,-0.00015400
22509,20040519,PPG,-0.00315400,-0.00300000,-0.00015400,-0.00538224,-0.01225805,-0.01420841,0.00017600
22509,20040520,PPG,0.00017600,0.00000000,0.00017600,0.02003883,0.00584682,0.01763153,0.02007700
22509,20040521,PPG,0.02407700,0.00400000,0.02007700,0.01526157,0.00964617,0.01599957,-0.00491700
22509,20040524,PPG,-0.00291700,0.00200000,-0.00491700,0.01937284,0.01933705,0.01734632,0.00396600
22509,20040525,PPG,0.01996600,0.01600000,0.00396600,-0.00015951,0.02050044,0.02139068,0.00086900
22509,20040526,PPG,0.00286900,0.00200000,0.00086900,0.00598080,0.02155293,0.00848568,0.00106700
22509,20040527,PPG,0.00706700,0.00600000,0.00106700,0.00210892,0.00109623,0.00709318,0.00016500
22509,20040528,PPG,-0.00083500,-0.00100000,0.00016500,0.00072689,0.00562810,0.01560788,-0.00050200
22509,20040601,PPG,-0.00050200,0.00000000,-0.00050200,0.00451893,0.00651204,0.02629284,0.00486300
22509,20040602,PPG,0.00786300,0.00300000,0.00486300,-0.00434070,-0.00314068,0.01723907,-0.00860400
22509,20040603,PPG,-0.01560400,-0.00700000,-0.00860400,0.00590076,0.00555596,0.02739604,0.00984000
22509,20040604,PPG,0.01484000,0.00500000,0.00984000,0.00034381,0.00476413,0.00600406,-0.00071300
22509,20040607,PPG,0.01528700,0.01600000,-0.00071300,0.00689483,0.00290910,0.00872780,-0.00232700
22509,20040608,PPG,-0.00032700,0.00200000,-0.00232700,0.00159925,0.00264634,0.00924653,0.00458000
22509,20040609,PPG,-0.00442000,-0.00900000,0.00458000,0.00009038,0.00934796,0.00612722,-0.00220400
22509,20040610,PPG,0.00279600,0.00500000,-0.00220400,-0.00515004,-0.00826092,-0.00272953,-0.00754700
22509,20040614,PPG,-0.01754700,-0.01000000,-0.00754700,-0.01391100,-0.01157039,-0.00708687,-0.00416400
22509,20040615,PPG,0.00183600,0.00600000,-0.00416400,-0.00841557,-0.00600046,-0.00324352,0.00333200
22509,20040616,PPG,0.00433200,0.00100000,0.00333200,-0.00015730,-0.00996349,-0.00740900,0.00066800
22509,20040617,PPG,-0.00033200,-0.00100000,0.00066800,0.02182539,0.00976341,0.01937795,0.01774300
22509,20040618,PPG,0.02074300,0.00300000,0.01774300,0.01893146,0.01821980,0.00983599,0.00058600
22509,20040621,PPG,-0.00341400,-0.00400000,0.00058600,0.01809105,0.02217478,0.01017793,-0.00024800
22509,20040622,PPG,0.00375200,0.00400000,-0.00024800,0.00190887,0.02052028,0.01418507,0.00156400
22509,20040623,PPG,0.01056400,0.00900000,0.00156400,-0.00477647,0.01359394,0.00341808,-0.00600600
22509,20040624,PPG,-0.00900600,-0.00300000,-0.00600600,0.00344500,0.00378771,0.01359309,0.00792100
22509,20040625,PPG,0.00292100,-0.00500000,0.00792100,-0.00276270,-0.00149450,0.01676245,-0.00466300
22509,20040628,PPG,-0.00566300,-0.00100000,-0.00466300,0.02297461,0.01851169,0.04121741,0.01978300
22509,20040629,PPG,0.02278300,0.00300000,0.01978300,0.00516074,0.00701413,0.02771387,-0.00972800
22509,20040630,PPG,-0.00572800,0.00400000,-0.00972800,-0.00019614,0.00303095,0.01657048,-0.00984300
22509,20040701,PPG,-0.01984300,-0.01000000,-0.00984300,-0.02757345,-0.01318321,-0.00948433,-0.00842900
22509,20040702,PPG,-0.01142900,-0.00300000,-0.00842900,-0.00553862,0.00407337,0.00260976,0.01278900
22509,20040706,PPG,0.00478900,-0.00800000,0.01278900,-0.00194113,-0.02113428,-0.00335338,-0.00627300
22509,20040707,PPG,-0.00427300,0.00200000,-0.00627300,0.01198626,-0.00620858,0.00058691,0.00552400
22509,20040708,PPG,-0.00247600,-0.00800000,0.00552400,0.00813036,0.01234422,0.01525870,0.00891500
22509,20040709,PPG,0.01191500,0.00300000,0.00891500,0.01921628,0.02571114,0.01214000,0.00472400
22509,20040712,PPG,0.00572400,0.00100000,0.00472400,0.01137598,0.01057335,0.01453752,-0.00230100
22509,20040713,PPG,-0.00130100,0.00100000,-0.00230100,0.00934574,0.02385266,0.00198418,0.00690800
22509,20040714,PPG,0.00390800,-0.00300000,0.00690800,-0.00522394,0.00830546,0.00183560,-0.00978500
22509,20040715,PPG,-0.01378500,-0.00400000,-0.00978500,-0.01556136,-0.01324451,-0.00100181,-0.01276000
22509,20040716,PPG,-0.01776000,-0.00500000,-0.01276000,-0.03026736,-0.02578253,-0.00075785,-0.00820400
22509,20040719,PPG,-0.00820400,-0.00000000,-0.00820400,-0.03156599,-0.03420110,-0.02400709,-0.01088300
22509,20040720,PPG,-0.00388300,0.00700000,-0.01088300,-0.02136716,-0.04288257,-0.02015264,-0.00259100
22509,20040721,PPG,-0.01559100,-0.01300000,-0.00259100,-0.01630420,-0.03663678,-0.02862898,-0.00300000
22509,20040722,PPG,0.00000000,0.00300000,-0.00300000,0.00078891,-0.01789577,-0.03055152,0.00638500
22509,20040723,PPG,-0.00361500,-0.01000000,0.00638500,0.00660551,-0.00672506,-0.03187238,0.00320900
22509,20040726,PPG,0.00120900,-0.00200000,0.00320900,0.01122352,0.00550816,-0.02849463,0.00156200
22509,20040727,PPG,0.01156200,0.01000000,0.00156200,0.00673403,0.01015532,-0.03339649,0.00190000
22509,20040728,PPG,0.00290000,0.00100000,0.00190000,0.00964665,0.01934673,-0.01829806,0.00605600
22509,20040729,PPG,0.01105600,0.00500000,0.00605600,-0.00138238,0.00343861,-0.01483295,-0.00924400
22509,20040730,PPG,-0.00824400,0.00100000,-0.00924400,0.00170728,0.00525247,-0.00172920,0.00499100
22509,20040802,PPG,0.00899100,0.00400000,0.00499100,-0.00368468,0.00423856,0.00974610,0.00062000
22509,20040803,PPG,-0.00538000,-0.00600000,0.00062000,0.01710204,0.01387427,0.02422690,0.01148000
22509,20040804,PPG,0.01048000,-0.00100000,0.01148000,-0.00149591,-0.00572890,0.01313659,-0.01327400
22509,20040805,PPG,-0.02927400,-0.01600000,-0.01327400,-0.00342986,0.00196735,0.00532649,-0.00137100
22509,20040806,PPG,-0.01637100,-0.01500000,-0.00137100,-0.00981131,0.00181826,0.00692661,0.00482700
22509,20040809,PPG,0.00582700,0.00100000,0.00482700,0.01157463,0.00923931,0.01348600,0.00824300
22509,20040810,PPG,0.02124300,0.01300000,0.00824300,0.01816515,0.00278087,0.01642273,0.00489100
22509,20040811,PPG,0.00189100,-0.00300000,0.00489100,0.00373865,0.00706707,0.00126301,-0.00910500
22509,20040812,PPG,-0.02110500,-0.01200000,-0.00910500,-0.01197930,0.00069134,0.00263644,-0.00783600
22509,20040813,PPG,-0.00683600,0.00100000,-0.00783600,0.00540215,0.01877796,0.01996684,0.02306300
22509,20040816,PPG,0.03706300,0.01400000,0.02306300,0.01888890,0.01416226,0.02329208,0.00378600
22509,20040817,PPG,0.00578600,0.00200000,0.00378600,0.02578585,0.00781068,0.01050306,-0.00150900
22509,20040818,PPG,0.01049100,0.01200000,-0.00150900,0.00296610,0.01816366,0.02524348,0.00065100
22509,20040819,PPG,-0.00334900,-0.00400000,0.00065100,-0.00316329,0.02414158,0.02486733,-0.00229600
22509,20040820,PPG,0.00470400,0.00700000,-0.00229600,-0.01469695,-0.01262112,0.00603973,-0.01305000
22509,20040823,PPG,-0.01505000,-0.00200000,-0.01305000,-0.00296972,-0.00384012,0.01044454,0.01256400
22509,20040824,PPG,0.01256400,0.00000000,0.01256400,0.00020410,-0.00143812,0.00640712,0.00088700
22509,20040825,PPG,0.00888700,0.00800000,0.00088700,0.01559965,-0.00008886,0.01830755,0.00199400
22509,20040826,PPG,0.00199400,0.00000000,0.00199400,-0.00565672,-0.00632351,0.01766067,-0.00846900
22509,20040827,PPG,-0.00646900,0.00200000,-0.00846900,-0.00312585,0.01028780,-0.00233324,0.00332500
22509,20040830,PPG,-0.00467500,-0.00800000,0.00332500,-0.00757954,-0.00476641,-0.00867676,-0.00248400
22509,20040831,PPG,0.00251600,0.00500000,-0.00248400,-0.00646694,-0.01291900,-0.01445584,-0.00735400
22509,20040901,PPG,-0.00535400,0.00200000,-0.00735400,0.00220830,-0.00300615,-0.00313496,0.01221300
22509,20040902,PPG,0.02321300,0.01100000,0.01221300,0.00642203,0.00728520,0.00093655,0.00169800
22509,20040903,PPG,-0.00230200,-0.00400000,0.00169800,0.00903954,-0.00098574,0.00950721,-0.00485800
22509,20040907,PPG,0.00214200,0.00700000,-0.00485800,-0.00964632,-0.00510955,-0.00994414,-0.00652300
22509,20040908,PPG,-0.01052300,-0.00400000,-0.00652300,-0.01601817,-0.00238149,-0.01542662,-0.00465900
22509,20040909,PPG,-0.00265900,0.00200000,-0.00465900,-0.01728663,-0.02043007,-0.02363711,-0.00616600
22509,20040910,PPG,-0.00116600,0.00500000,-0.00616600,-0.00902355,-0.02042594,-0.01332252,0.00183700
22509,20040913,PPG,0.00383700,0.00200000,0.00183700,-0.01585470,-0.02689276,-0.02842667,-0.01147200
22509,20040914,PPG,-0.00947200,0.00200000,-0.01147200,-0.00514896,-0.01592840,-0.02116746,0.00448400
22509,20040915,PPG,-0.00251600,-0.00700000,0.00448400,-0.00428550,-0.00863155,-0.01110762,0.00271800
22509,20040916,PPG,0.00571800,0.00300000,0.00271800,-0.00264688,-0.01230682,-0.03263988,-0.00985300
22509,20040917,PPG,-0.00585300,0.00400000,-0.00985300,-0.00248415,-0.00941127,-0.02967542,0.00465400
22509,20040920,PPG,-0.00134600,-0.00600000,0.00465400,-0.00847939,-0.00126920,-0.02813475,-0.00330500
22509,20040921,PPG,0.00269500,0.00600000,-0.00330500,0.00663403,-0.00044675,-0.01625637,0.00526500
22509,20040922,PPG,-0.00873500,-0.01400000,0.00526500,0.00125291,-0.00385578,-0.01234337,-0.00076200
22509,20040923,PPG,-0.00576200,-0.00500000,-0.00076200,0.01915141,0.02053502,0.00826619,0.01487400
22509,20040924,PPG,0.01687400,0.00200000,0.01487400,0.01695645,0.01885585,0.00935079,0.00298300
22509,20040927,PPG,-0.00301700,-0.00600000,0.00298300,0.02769391,0.03178598,0.03049569,0.00963600
22509,20040928,PPG,0.01563600,0.00600000,0.00963600,0.02302287,0.03735682,0.03662691,0.01023600
22509,20040929,PPG,0.01423600,0.00400000,0.01023600,0.02023841,0.03851447,0.03390786,0.00016300
22509,20040930,PPG,0.00016300,-0.00000000,0.00016300,0.00825368,0.02120547,0.04220604,-0.00227100
22509,20041001,PPG,0.01272900,0.01500000,-0.00227100,-0.00270279,0.01764859,0.03706980,-0.00058300
22509,20041004,PPG,0.00241700,0.00300000,-0.00058300,-0.00854124,0.00191416,0.03439896,-0.00559100
22509,20041005,PPG,-0.00659100,-0.00100000,-0.00559100,-0.00643344,-0.00864127,0.02928662,-0.00020400
22509,20041006,PPG,0.00679600,0.00700000,-0.00020400,-0.00911501,-0.01210990,0.02640138,-0.00334000
22509,20041007,PPG,-0.01334000,-0.01000000,-0.00334000,-0.00254673,-0.00865474,0.01201022,0.00099600
22509,20041008,PPG,-0.00700400,-0.00800000,0.00099600,-0.00284855,-0.00858874,0.00848812,-0.00052400
22509,20041011,PPG,0.00147600,0.00200000,-0.00052400,-0.00388696,-0.00739727,-0.00567447,-0.00438800
22509,20041012,PPG,-0.00638800,-0.00200000,-0.00438800,-0.02646024,-0.02823866,-0.03710348,-0.02168400
22509,20041013,PPG,-0.02868400,-0.00700000,-0.02168400,-0.00060385,-0.00013133,-0.01195309,0.02597200
22509,20041014,PPG,0.01697200,-0.00900000,0.02597200,0.01002272,0.00511502,-0.00352649,0.00634700
22509,20041015,PPG,0.01034700,0.00400000,0.00634700,0.02755580,0.00069321,-0.00783076,-0.00500000
22509,20041018,PPG,0.00000000,0.00500000,-0.00500000,-0.00593951,-0.00213292,-0.00936516,-0.00717900
22509,20041019,PPG,-0.01717900,-0.01000000,-0.00717900,-0.00353921,0.02872982,-0.00074849,0.00874000
22509,20041020,PPG,0.00874000,0.00000000,0.00874000,0.00091828,0.00224552,0.00206017,-0.00050100
22509,20041021,PPG,0.00249900,0.00300000,-0.00050100,0.01761825,0.00527183,0.01028892,0.00933500
22509,20041022,PPG,-0.00066500,-0.01000000,0.00933500,0.02335093,0.02454983,0.02502552,0.01447100
22509,20041025,PPG,0.01347100,-0.00100000,0.01447100,0.02523865,0.03381537,0.03102117,0.00108100
22509,20041026,PPG,0.01608100,0.01500000,0.00108100,0.01856733,0.02770439,0.05752447,0.00250400
22509,20041027,PPG,0.01550400,0.01300000,0.00250400,-0.00563680,0.01879768,0.02116413,-0.00899700
22509,20041028,PPG,-0.00699700,0.00200000,-0.00899700,0.01249872,0.02892361,0.03416445,0.01898000
22509,20041029,PPG,0.02098000,0.00200000,0.01898000,0.00824158,0.01215782,0.03758123,-0.00156900
22509,20041101,PPG,-0.00156900,0.00000000,-0.00156900,0.01737814,0.01088338,0.04571815,0.00000000
22509,20041102,PPG,0.00000000,0.00000000,0.00000000,0.00280378,0.01278300,0.04151340,0.00439700
22509,20041103,PPG,0.01539700,0.01100000,0.00439700,0.01115874,0.02922538,0.04967510,0.00659000
22509,20041104,PPG,0.02259000,0.01600000,0.00659000,0.00280849,0.00118602,0.03108590,-0.00808500
22509,20041105,PPG,-0.00408500,0.00400000,-0.00808500,0.00308198,0.00761008,0.02047413,0.00464600
22509,20041108,PPG,0.00364600,-0.00100000,0.00464600,0.00806537,0.01955553,0.03130333,0.01151700
22509,20041109,PPG,0.01051700,-0.00100000,0.01151700,0.01260906,0.01119495,0.02450692,-0.00352500
22509,20041110,PPG,-0.00452500,-0.00100000,-0.00352500,0.01039296,0.00691431,0.03683612,0.00236400
22509,20041111,PPG,0.01136400,0.00900000,0.00236400,-0.00665587,0.00972637,0.01124604,-0.00540500
22509,20041112,PPG,0.00359500,0.00900000,-0.00540500,-0.00489892,0.00315896,0.01101076,-0.00179100
22509,20041115,PPG,-0.00179100,-0.00000000,-0.00179100,-0.00628137,-0.00752974,0.01185295,0.00086900
22509,20041116,PPG,-0.00613100,-0.00700000,0.00086900,-0.00089765,-0.00398896,0.00728404,0.00001900
22509,20041117,PPG,0.00601900,0.00600000,0.00001900,0.00677310,-0.00041680,0.00655239,0.00588000
22509,20041118,PPG,0.00688000,0.00100000,0.00588000,0.01219691,0.01119314,0.02108921,0.00624700
22509,20041119,PPG,-0.00475300,-0.01100000,0.00624700,0.01214781,0.01303545,0.01642862,-0.00003000
22509,20041122,PPG,0.00597000,0.00600000,-0.00003000,0.00150094,0.00742466,-0.00010150,-0.00474800
22509,20041123,PPG,-0.00474800,-0.00000000,-0.00474800,-0.00405459,0.00816355,0.00428132,0.00077000
22509,20041124,PPG,0.00477000,0.00400000,0.00077000,0.00285845,0.00914771,0.00880907,0.00686300
22509,20041126,PPG,0.00786300,0.00100000,0.00686300,0.01172465,0.00692271,0.01820645,0.00403000
22509,20041129,PPG,0.00103000,-0.00300000,0.00403000,0.00703268,0.00305612,0.01608948,-0.00379400
22509,20041130,PPG,-0.00779400,-0.00400000,-0.00379400,0.00121933,0.00896200,0.01656642,0.00100700
22509,20041201,PPG,0.01600700,0.01500000,0.00100700,-0.00992880,0.00099518,0.00923130,-0.00702300
22509,20041202,PPG,-0.00802300,-0.00100000,-0.00702300,-0.01292356,-0.01261686,-0.00351113,-0.00673500
22509,20041203,PPG,-0.00573500,0.00100000,-0.00673500,-0.01023153,-0.01316324,-0.00636825,0.00351400
22509,20041206,PPG,0.00251400,-0.00100000,0.00351400,-0.01958768,-0.02580362,-0.02276561,-0.01644200
22509,20041207,PPG,-0.02744200,-0.01100000,-0.01644200,-0.01646891,-0.02985749,-0.02161294,-0.00348300
22509,20041208,PPG,0.00151700,0.00500000,-0.00348300,-0.02827483,-0.03141430,-0.03069983,-0.00848400
22509,20041209,PPG,-0.00348400,0.00500000,-0.00848400,-0.02160626,-0.03419143,-0.04660834,-0.00964000
22509,20041210,PPG,-0.01064000,-0.00100000,-0.00964000,-0.00803253,-0.02799499,-0.04115845,0.01035800
22509,20041213,PPG,0.01935800,0.00900000,0.01035800,0.00880107,-0.00335775,-0.02965626,0.00820800
22509,20041214,PPG,0.01220800,0.00400000,0.00820800,0.02227088,0.00360282,-0.02695843,0.00336000
22509,20041215,PPG,0.00536000,0.00200000,0.00336000,0.00806087,0.00865266,-0.02342042,-0.00348000
22509,20041216,PPG,-0.00548000,-0.00200000,-0.00348000,-0.00431270,0.01418516,-0.02073812,-0.00416900
22509,20041217,PPG,-0.01116900,-0.00700000,-0.00416900,-0.00019673,0.01132084,-0.01682811,0.00753000
22509,20041220,PPG,0.00753000,0.00000000,0.00753000,0.01072078,0.01057354,0.00740820,0.00744200
22509,20041221,PPG,0.01644200,0.00900000,0.00744200,0.01161724,0.00373131,0.00742947,-0.00344100
22509,20041222,PPG,-0.00044100,0.00300000,-0.00344100,0.00426550,0.00756592,0.01641774,0.00029400
22509,20041223,PPG,0.00029400,0.00000000,0.00029400,-0.00310558,0.01190021,0.02643805,0.00002900
22509,20041227,PPG,-0.00397100,-0.00400000,0.00002900,-0.00002962,0.00394853,0.01547230,-0.00035500
22509,20041228,PPG,0.00664500,0.00700000,-0.00035500,-0.00253020,-0.00568637,0.00487929,-0.00220000
22509,20041229,PPG,-0.00220000,-0.00000000,-0.00220000,-0.00124079,-0.00091214,0.00282418,0.00132300
22509,20041230,PPG,0.00132300,0.00000000,0.00132300,0.00085338,0.00053160,0.00811906,0.00173400
22509,20041231,PPG,0.00073400,-0.00100000,0.00173400,-0.00232857,-0.00488541,0.00689323,-0.00535100
22509,20050103,PPG,-0.01335100,-0.00800000,-0.00535100,-0.01405936,-0.01490854,-0.01132549,-0.01060200
22509,20050104,PPG,-0.02260200,-0.01200000,-0.01060200,-0.02547143,-0.02253879,-0.02809078,-0.01014900
22509,20050105,PPG,-0.01414900,-0.00400000,-0.01014900,-0.01073465,-0.01419027,-0.01511258,0.01019800
22509,20050106,PPG,0.01419800,0.00400000,0.01019800,0.00573232,-0.01020329,-0.00970831,0.00586900
22509,20050107,PPG,0.00486900,-0.00100000,0.00586900,0.01035291,-0.01062644,-0.01538904,-0.00572600
22509,20050110,PPG,-0.00272600,0.00300000,-0.00572600,-0.00237651,-0.00251149,-0.01727004,-0.00250300
22509,20050111,PPG,-0.00850300,-0.00600000,-0.00250300,-0.00036462,0.01578416,-0.00759130,0.00794500
22509,20050112,PPG,0.01194500,0.00400000,0.00794500,0.01146167,0.01161728,-0.00285250,0.00612500
22509,20050113,PPG,-0.00287500,-0.00900000,0.00612500,0.01162451,0.00329871,-0.00698588,-0.00250900
22509,20050114,PPG,0.00349100,0.00600000,-0.00250900,-0.00494761,0.00043741,-0.01024991,-0.00863900
22509,20050118,PPG,0.00136100,0.01000000,-0.00863900,0.00249435,0.01668595,0.01406066,0.01353100
22509,20050119,PPG,0.00453100,-0.00900000,0.01353100,0.01193729,0.01557854,0.03151053,0.00694800
22509,20050120,PPG,-0.00105200,-0.00800000,0.00694800,0.03294563,0.02215815,0.03374987,0.01262200
22509,20050121,PPG,0.00662200,-0.00600000,0.01262200,0.01849771,0.02350576,0.02677686,-0.00093400
22509,20050124,PPG,-0.00493400,-0.00400000,-0.00093400,0.02181959,0.04217491,0.04282648,0.01012500
22509,20050125,PPG,0.01412500,0.00400000,0.01012500,0.00952010,0.02918529,0.04626126,0.00033400
22509,20050126,PPG,0.00533400,0.00500000,0.00033400,0.01156656,0.02332188,0.03901121,0.00103200
22509,20050127,PPG,0.00103200,0.00000000,0.00103200,0.00364586,0.01283459,0.03522921,0.00226400
22509,20050128,PPG,-0.00073600,-0.00300000,0.00226400,0.00873115,0.01946843,0.04343084,0.00540800
22509,20050131,PPG,0.01340800,0.00800000,0.00540800,0.00609944,0.00752630,0.05056668,-0.00162000
22509,20050201,PPG,0.00538000,0.00700000,-0.00162000,0.00783081,0.01118803,0.04103787,0.00394100
22509,20050202,PPG,0.00694100,0.00300000,0.00394100,0.00275049,0.01052514,0.03436138,0.00041500
22509,20050203,PPG,-0.00258500,-0.00300000,0.00041500,0.00636231,0.01032824,0.02365215,0.00195900
22509,20050204,PPG,0.01295900,0.01100000,0.00195900,0.00984461,0.01231988,0.03253308,0.00739700
22509,20050207,PPG,0.00639700,-0.00100000,0.00739700,0.01362551,0.01807507,0.02612108,0.00409600
22509,20050208,PPG,0.00409600,0.00000000,0.00409600,0.01070211,0.01316256,0.02467237,-0.00070600
22509,20050209,PPG,-0.00970600,-0.00900000,-0.00070600,0.00715420,0.01669554,0.02764837,0.00381200
22509,20050210,PPG,0.00781200,0.00400000,0.00381200,0.00172841,0.01328804,0.02411141,-0.00136200
22509,20050211,PPG,0.00563800,0.00700000,-0.00136200,0.00159692,0.00497849,0.01748069,-0.00086000
22509,20050214,PPG,0.00014000,0.00100000,-0.00086000,0.00503675,0.00812688,0.02653731,0.00723000
22509,20050215,PPG,0.01023000,0.00300000,0.00723000,0.00342505,0.00594729,0.01937405,-0.00291300
22509,20050216,PPG,-0.00291300,0.00000000,-0.00291300,0.01077000,0.00861516,0.02554590,0.00647000
22509,20050217,PPG,-0.00153000,-0.00800000,0.00647000,0.00480252,0.01117596,0.02458257,0.00124300
22509,20050218,PPG,0.00224300,0.00100000,0.00124300,0.00497295,0.00920241,0.01415925,-0.00262700
22509,20050222,PPG,-0.01762700,-0.01500000,-0.00262700,0.01244576,0.01592316,0.02414371,0.01408000
22509,20050223,PPG,0.02008000,0.00600000,0.01408000,0.00717886,0.01489257,0.02110440,-0.00409100
22509,20050224,PPG,0.00390900,0.00800000,-0.00409100,0.01570308,0.01401968,0.02287299,0.00546200
22509,20050225,PPG,0.01446200,0.00900000,0.00546200,-0.00650263,0.00479543,0.01603033,-0.00770800
22509,20050228,PPG,-0.01370800,-0.00600000,-0.00770800,-0.00145512,0.00861907,0.01795023,0.00094900
22509,20050301,PPG,0.00694900,0.00600000,0.00094900,-0.01326091,-0.01214977,0.00404600,-0.00648700
22509,20050302,PPG,-0.00648700,-0.00000000,-0.00648700,-0.00058015,-0.00298502,0.01202095,0.00500100
22509,20050303,PPG,0.00500100,0.00000000,0.00500100,0.00380223,-0.00311038,0.01097790,0.00534400
22509,20050304,PPG,0.01534400,0.01000000,0.00534400,0.00780906,0.00215638,0.00705761,-0.00259100
22509,20050307,PPG,0.00040900,0.00300000,-0.00259100,0.01221803,0.01066887,0.01969540,0.00935500
22509,20050308,PPG,0.00435500,-0.00500000,0.00935500,0.01471787,0.02531515,0.01331475,0.00796700
22509,20050309,PPG,-0.00203300,-0.01000000,0.00796700,0.00930520,0.01214572,0.00923366,-0.00797400
22509,20050310,PPG,-0.00597400,0.00200000,-0.00797400,0.00443841,0.01113209,0.00815380,0.00444900
22509,20050311,PPG,-0.00355100,-0.00800000,0.00444900,-0.00442790,0.01282405,0.01522078,-0.00092800
22509,20050314,PPG,0.00507200,0.00600000,-0.00092800,0.00730024,0.00726679,0.01787934,0.00377200
22509,20050315,PPG,-0.00422800,-0.00800000,0.00377200,-0.00532111,-0.00872330,0.01598475,-0.00816200
22509,20050316,PPG,-0.01616200,-0.00800000,-0.00816200,-0.00144353,0.00205566,0.01403192,0.00301200
22509,20050317,PPG,0.00501200,0.00200000,0.00301200,-0.01165275,-0.00880908,0.00229334,-0.00651100
22509,20050318,PPG,-0.00651100,-0.00000000,-0.00651100,-0.00255935,-0.00687975,0.00571693,0.00095600
22509,20050321,PPG,-0.00404400,-0.00500000,0.00095600,0.00469842,-0.00049129,0.00662906,0.01028000
22509,20050322,PPG,0.00028000,-0.01000000,0.01028000,-0.00290668,-0.00638446,-0.01484537,-0.01415600
22509,20050323,PPG,-0.01315600,0.00100000,-0.01415600,0.00118125,-0.00430454,-0.00221965,0.00511300
22509,20050324,PPG,0.00411300,-0.00100000,0.00511300,-0.01361507,-0.00235657,-0.01101157,-0.00454200
22509,20050328,PPG,-0.00254200,0.00200000,-0.00454200,-0.00788116,-0.01162224,-0.01809262,-0.00842600
22509,20050329,PPG,-0.01642600,-0.00800000,-0.00842600,-0.00507468,-0.01419658,-0.01438840,0.00817100
22509,20050330,PPG,0.02217100,0.01400000,0.00817100,0.00786204,0.00843955,0.00186242,0.00832400
22509,20050331,PPG,0.00732400,-0.00100000,0.00832400,0.00676895,-0.00635860,-0.01054436,-0.00952000
22509,20050401,PPG,-0.01552000,-0.00600000,-0.00952000,0.00246560,0.00197368,-0.00041753,0.00381700
22509,20050404,PPG,0.00681700,0.00300000,0.00381700,-0.00865962,0.00777104,-0.00422787,-0.00287100
22509,20050405,PPG,0.00112900,0.00400000,-0.00287100,0.00602881,0.00465114,-0.00960268,0.00504500
22509,20050406,PPG,0.00704500,0.00200000,0.00504500,-0.00104114,-0.00689255,0.00152414,-0.00320200
22509,20050407,PPG,0.00279800,0.00600000,-0.00320200,-0.01234860,-0.01150513,-0.01784461,-0.01404600
22509,20050408,PPG,-0.02204600,-0.00800000,-0.01404600,-0.03013427,-0.02821119,-0.02633758,-0.01312600
22509,20050411,PPG,-0.01312600,0.00000000,-0.01312600,-0.02264883,-0.02102531,-0.01366514,0.00455400
22509,20050412,PPG,0.01055400,0.00600000,0.00455400,-0.01960920,-0.03638746,-0.03201491,-0.01103300
22509,20050413,PPG,-0.02303300,-0.01200000,-0.01103300,-0.02128820,-0.04699778,-0.05382427,-0.01489400
22509,20050414,PPG,-0.02489400,-0.01000000,-0.01489400,-0.03202154,-0.04030994,-0.05125517,-0.00732800
22509,20050415,PPG,-0.02432800,-0.01700000,-0.00732800,-0.01811655,-0.02437723,-0.05115520,0.00392600
22509,20050418,PPG,0.00692600,0.00300000,0.00392600,0.00903652,-0.01665778,-0.03680459,0.01280200
22509,20050419,PPG,0.01880200,0.00600000,0.01280200,0.01610533,-0.00637470,-0.04135708,-0.00050300
22509,20050420,PPG,-0.01350300,-0.01300000,-0.00050300,0.01825008,0.01436501,-0.03358282,0.00585500
22509,20050421,PPG,0.02585500,0.02000000,0.00585500,0.01456071,0.03177232,-0.01120958,0.00922400
22509,20050422,PPG,0.00222400,-0.00700000,0.00922400,0.01908852,0.03157436,0.00512596,0.00357400
22509,20050425,PPG,0.01257400,0.00900000,0.00357400,-0.00759659,-0.00246220,-0.01899903,-0.02007200
22509,20050426,PPG,-0.02907200,-0.00900000,-0.02007200,-0.02374042,-0.00907207,-0.01521663,-0.00700900
22509,20050427,PPG,-0.00300900,0.00400000,-0.00700900,-0.01791213,-0.00549469,0.00859717,0.00903800
22509,20050428,PPG,-0.00196200,-0.01100000,0.00903800,0.01152990,-0.00552881,0.02617189,0.00947300
22509,20050429,PPG,0.02147300,0.01200000,0.00947300,0.02038830,-0.00737977,0.02387826,0.00166200
22509,20050502,PPG,0.00666200,0.00500000,0.00166200,0.01435241,0.01639340,0.01386260,0.00305900
22509,20050503,PPG,0.00205900,-0.00100000,0.00305900,0.00527482,0.02427685,0.01523955,0.00047400
22509,20050504,PPG,0.01247400,0.01200000,0.00047400,0.00557395,0.01703897,0.01107264,0.00198500
22509,20050505,PPG,-0.00101500,-0.00300000,0.00198500,0.00994849,0.01481279,0.00920679,0.00738400
22509,20050506,PPG,0.00638400,-0.00100000,0.00738400,-0.00099489,0.00256844,-0.00492406,-0.01035500
22509,20050509,PPG,-0.00435500,0.00600000,-0.01035500,-0.00990684,-0.00755284,0.00869634,-0.00693300
22509,20050510,PPG,-0.01793300,-0.01100000,-0.00693300,-0.02504265,-0.01582758,0.00767385,-0.00800800
22509,20050511,PPG,-0.00400800,0.00400000,-0.00800800,-0.03143027,-0.03443522,-0.01905463,-0.01712800
22509,20050512,PPG,-0.02712800,-0.01000000,-0.01712800,-0.03144839,-0.04770516,-0.03440791,-0.00679700
22509,20050513,PPG,-0.01179700,-0.00500000,-0.00679700,-0.02843800,-0.04256558,-0.04069044,-0.00472900
22509,20050516,PPG,0.00527100,0.01000000,-0.00472900,-0.00156658,-0.02680464,-0.03427574,0.01011900
22509,20050517,PPG,0.01711900,0.00700000,0.01011900,0.01539469,-0.00949897,-0.02531604,0.00971200
22509,20050518,PPG,0.01971200,0.01000000,0.00971200,0.00452533,-0.00729834,-0.04233135,-0.01511200
22509,20050519,PPG,-0.01011200,0.00500000,-0.01511200,-0.01074562,-0.00550646,-0.05430676,-0.00506000
22509,20050520,PPG,-0.00706000,-0.00200000,-0.00506000,-0.00982784,0.01004611,-0.03409844,0.01052300
22509,20050523,PPG,0.01452300,0.00400000,0.01052300,0.00161312,-0.00403230,-0.03121015,-0.00372800
22509,20050524,PPG,-0.00372800,0.00000000,-0.00372800,-0.00265287,-0.02271797,-0.03230892,-0.00927400
22509,20050525,PPG,-0.01227400,-0.00300000,-0.00927400,-0.01729784,-0.01204062,-0.01961512,-0.00433300
22509,20050526,PPG,0.00166700,0.00600000,-0.00433300,-0.01685743,-0.01027066,-0.01607595,-0.00326900
22509,20050527,PPG,-0.00226900,0.00100000,-0.00326900,-0.01005570,-0.02286396,-0.01362113,-0.00249100
22509,20050531,PPG,-0.00849100,-0.00600000,-0.00249100,0.00225433,-0.01143286,-0.01564224,0.00812800
22509,20050601,PPG,0.01712800,0.00900000,0.00812800,-0.00146441,-0.00911310,-0.03193276,-0.00696200
22509,20050602,PPG,-0.00496200,0.00200000,-0.00696200,-0.00348255,-0.00920256,-0.02116514,-0.00448400
22509,20050603,PPG,-0.01148400,-0.00700000,-0.00448400,-0.01312154,-0.00770963,-0.01795166,-0.00176400
22509,20050606,PPG,-0.00076400,0.00100000,-0.00176400,-0.00698794,-0.00601570,-0.02884290,-0.00076500
22509,20050607,PPG,-0.00076500,-0.00000000,-0.00076500,-0.00236073,-0.01368566,-0.02498835,0.00016300
22509,20050608,PPG,-0.00183700,-0.00200000,0.00016300,-0.01094469,-0.01706165,-0.02619622,-0.01036800
22509,20050609,PPG,-0.00536800,0.00500000,-0.01036800,-0.00373937,-0.00626465,-0.01542102,0.00647200
22509,20050610,PPG,0.00447200,-0.00200000,0.00647200,-0.00346227,-0.00405693,-0.01175390,0.00045600
22509,20050613,PPG,0.00245600,0.00200000,0.00045600,0.00517644,-0.00507649,-0.01112282,-0.00177500
22509,20050614,PPG,0.00122500,0.00300000,-0.00177500,0.00219429,-0.00174516,-0.01553367,0.00350600
22509,20050615,PPG,0.00550600,0.00200000,0.00350600,0.01654789,0.02366833,0.00597710,0.01471000
22509,20050616,PPG,0.01871000,0.00400000,0.01471000,0.00762176,0.00631320,-0.00007932,-0.01052500
22509,20050617,PPG,-0.00552500,0.00500000,-0.01052500,-0.00694644,-0.00524759,-0.00935186,-0.01086200
22509,20050620,PPG,-0.01186200,-0.00100000,-0.01086200,-0.02557992,-0.00785447,-0.01297882,-0.00438200
22509,20050621,PPG,-0.00638200,-0.00200000,-0.00438200,-0.01697195,-0.01314444,-0.01500893,-0.00183500
22509,20050622,PPG,-0.00183500,0.00000000,-0.00183500,-0.01346145,-0.03426808,-0.01193382,-0.00738500
22509,20050623,PPG,-0.01838500,-0.01100000,-0.00738500,-0.01794384,-0.03250123,-0.02705442,-0.00901300
22509,20050624,PPG,-0.01701300,-0.00800000,-0.00901300,-0.01258783,-0.01856639,-0.02384430,0.00369900
22509,20050627,PPG,0.00269900,-0.00100000,0.00369900,0.00100924,-0.00819673,-0.01596548,0.00651900
22509,20050628,PPG,0.01551900,0.00900000,0.00651900,0.00619585,-0.01030770,-0.02321991,-0.00399000
22509,20050629,PPG,-0.00499000,-0.00100000,-0.00399000,-0.00711036,-0.01238119,-0.04583674,-0.00945500
22509,20050630,PPG,-0.01645500,-0.00700000,-0.00945500,-0.01244796,-0.00245781,-0.03492080,0.00098300
22509,20050701,PPG,0.00398300,0.00300000,0.00098300,-0.01873433,-0.01645733,-0.03459939,-0.01027000
22509,20050705,PPG,-0.00127000,0.00900000,-0.01027000,-0.01157975,-0.02475477,-0.03244095,-0.00232900
22509,20050706,PPG,-0.01032900,-0.00800000,-0.00232900,-0.01895953,-0.02726328,-0.03694977,-0.00649600
22509,20050707,PPG,-0.00449600,0.00200000,-0.00649600,-0.00368728,-0.01307135,-0.02540826,0.00525800
22509,20050708,PPG,0.01725800,0.01200000,0.00525800,0.01537700,0.00243340,-0.00007499,0.01651500
22509,20050711,PPG,0.02251500,0.00600000,0.01651500,0.01602086,0.00684539,-0.00986572,-0.00587700
22509,20050712,PPG,-0.00387700,0.00200000,-0.00587700,0.00096879,-0.00037047,-0.02568813,-0.00940600
22509,20050713,PPG,-0.00840600,0.00100000,-0.00940600,-0.01081875,0.01096920,-0.01726479,0.00453500
22509,20050714,PPG,0.00753500,0.00300000,0.00453500,-0.00609730,0.00438113,-0.00883929,-0.00115600
22509,20050715,PPG,-0.00015600,0.00100000,-0.00115600,0.00406165,-0.01120968,-0.00903720,0.00070200
22509,20050718,PPG,-0.00529800,-0.00600000,0.00070200,0.00583220,0.00087967,0.00778424,0.00631700
22509,20050719,PPG,0.01331700,0.00700000,0.00631700,0.01881637,0.02235007,0.02248548,0.01169800
22509,20050720,PPG,0.01669800,0.00500000,0.01169800,0.00429354,0.00382067,0.01492333,-0.01337700
22509,20050721,PPG,-0.02037700,-0.00700000,-0.01337700,0.01096065,0.01805885,0.02277209,0.01300700
22509,20050722,PPG,0.01800700,0.00500000,0.01300700,-0.00781049,0.01004603,-0.00133301,-0.00713100
22509,20050725,PPG,-0.01113100,-0.00400000,-0.00713100,-0.00499893,-0.00696896,-0.00613620,-0.01063500
22509,20050726,PPG,-0.00863500,0.00200000,-0.01063500,-0.00496364,-0.00565398,0.01653426,0.01304300
22509,20050727,PPG,0.01804300,0.00500000,0.01304300,0.00776520,0.01358700,0.01751216,0.00545900
22509,20050728,PPG,0.01145900,0.00600000,0.00545900,0.00856797,-0.00931434,0.00855659,-0.00967400
22509,20050729,PPG,-0.01767400,-0.00800000,-0.00967400,-0.00460344,-0.00240610,0.00766127,-0.00023100
22509,20050801,PPG,0.00076900,0.00100000,-0.00023100,-0.00462601,0.01391424,0.00678494,0.00544600
22509,20050802,PPG,0.01244600,0.00700000,0.00544600,0.01205195,0.00756568,0.00183675,0.00674000
22509,20050803,PPG,0.00774000,0.00100000,0.00674000,-0.00079771,-0.01070421,0.00250463,-0.01272900
22509,20050804,PPG,-0.01972900,-0.00700000,-0.01272900,-0.00486068,0.00021983,-0.00903988,0.00124000
22509,20050805,PPG,-0.00676000,-0.00800000,0.00124000,-0.00484219,0.00711526,0.00475854,0.00671200
22509,20050808,PPG,0.00371200,-0.00300000,0.00671200,0.00531252,-0.00086184,0.01289132,-0.00265400
22509,20050809,PPG,0.00434600,0.00700000,-0.00265400,0.00407799,-0.00746358,-0.00010460,-0.00000900
22509,20050810,PPG,-0.00200900,-0.00200000,-0.00000900,0.00645191,0.01443008,0.00347414,0.00910700
22509,20050811,PPG,0.01610700,0.00700000,0.00910700,-0.00081031,0.00327412,0.00347546,-0.00969900
22509,20050812,PPG,-0.01569900,-0.00600000,-0.00969900,-0.00039828,-0.00306742,0.00412059,0.00040700
22509,20050815,PPG,0.00340700,0.00300000,0.00040700,-0.01733016,-0.00863031,-0.00938942,-0.00821600
22509,20050816,PPG,-0.02021600,-0.01200000,-0.00821600,-0.00883287,-0.00963070,-0.01684423,-0.00100000
22509,20050817,PPG,0.00000000,0.00100000,-0.00100000,-0.01377042,-0.02281603,-0.00895222,-0.00467000
22509,20050818,PPG,-0.00567000,-0.00100000,-0.00467000,0.00876689,0.00076923,0.00402179,0.01452400
22509,20050819,PPG,0.01552400,0.00100000,0.01452400,0.00634927,-0.00300150,-0.00605892,-0.00340400
22509,20050822,PPG,-0.00140400,0.00200000,-0.00340400,0.00824475,0.00252897,-0.00614856,-0.00277900
22509,20050823,PPG,-0.00577900,-0.00300000,-0.00277900,-0.00635102,0.00327577,-0.00633267,-0.00022700
22509,20050824,PPG,-0.00722700,-0.00700000,-0.00022700,-0.01168201,-0.00083924,-0.02350899,-0.00880500
22509,20050825,PPG,-0.00680500,0.00200000,-0.00880500,-0.00818338,-0.01422576,-0.01336222,0.00074200
22509,20050826,PPG,-0.00525800,-0.00600000,0.00074200,-0.00607858,-0.00899085,-0.01186002,0.00200900
22509,20050829,PPG,0.00800900,0.00600000,0.00200900,0.00000821,-0.00893345,-0.00644732,-0.00272100
22509,20050830,PPG,-0.00572100,-0.00300000,-0.00272100,-0.00420192,-0.01227091,-0.00890786,-0.00344700
22509,20050831,PPG,0.00655300,0.01000000,-0.00344700,-0.00861255,-0.00586922,-0.00668074,-0.00242900
22509,20050901,PPG,-0.00142900,0.00100000,-0.00242900,-0.00254264,-0.00329410,-0.01758977,0.00331800
22509,20050902,PPG,0.00031800,-0.00300000,0.00331800,-0.01271770,-0.01897093,-0.02780079,-0.01363600
22509,20050906,PPG,-0.00063600,0.01300000,-0.01363600,-0.00943688,-0.01545115,-0.02432899,0.00086300
22509,20050907,PPG,0.00286300,0.00200000,0.00086300,-0.01112492,-0.01021123,-0.02255792,0.00162100
22509,20050908,PPG,-0.00237900,-0.00400000,0.00162100,-0.00788484,-0.01822288,-0.02422374,-0.01038500
22509,20050909,PPG,-0.00238500,0.00800000,-0.01038500,-0.00375738,-0.01660442,-0.02008560,0.00498400
22509,20050912,PPG,0.00398400,-0.00100000,0.00498400,-0.01149609,-0.00901895,-0.02792305,-0.00612700
22509,20050913,PPG,-0.01412700,-0.00800000,-0.00612700,-0.00158080,-0.01019523,-0.02560029,-0.00038100
22509,20050914,PPG,-0.00338100,-0.00300000,-0.00038100,-0.01299256,-0.01835649,-0.02850293,-0.00662400
22509,20050915,PPG,-0.00662400,0.00000000,-0.00662400,-0.00433273,-0.00550187,-0.02363850,0.00273300
22509,20050916,PPG,0.01073300,0.00800000,0.00273300,-0.00372951,-0.01016128,-0.02663004,0.00020800
22509,20050919,PPG,-0.00579200,-0.00600000,0.00020800,-0.01231348,-0.01913080,-0.02783691,-0.01514300
22509,20050920,PPG,-0.02314300,-0.00800000,-0.01514300,-0.02576562,-0.02974131,-0.03924104,-0.01137800
22509,20050921,PPG,-0.02037800,-0.00900000,-0.01137800,-0.02892058,-0.02617293,-0.04373950,-0.00281600
22509,20050922,PPG,0.00118400,0.00400000,-0.00281600,-0.00921297,-0.02373659,-0.02891279,0.00508100
22509,20050923,PPG,0.00608100,0.00100000,0.00508100,-0.00804829,-0.03395389,-0.04334100,-0.01024200
22509,20050926,PPG,-0.01024200,0.00000000,-0.01024200,-0.01282507,-0.02677486,-0.04507394,-0.00763400
22509,20050927,PPG,-0.00763400,0.00000000,-0.00763400,-0.02820043,-0.02613507,-0.05488554,-0.01057300
22509,20050928,PPG,-0.00957300,0.00100000,-0.01057300,-0.01781254,-0.02301292,-0.04861720,0.00049300
22509,20050929,PPG,0.00949300,0.00900000,0.00049300,0.00077606,-0.01723165,-0.04051170,0.01096800
22509,20050930,PPG,0.01196800,0.00100000,0.01096800,-0.00401919,-0.02222913,-0.05546679,-0.01523300
22509,20051003,PPG,-0.01723300,-0.00200000,-0.01523300,-0.00781500,-0.01788162,-0.04407618,-0.00340900
22509,20051004,PPG,-0.01340900,-0.01000000,-0.00340900,-0.01830871,-0.00744805,-0.03298737,-0.00015900
22509,20051005,PPG,-0.01515900,-0.01500000,-0.00015900,-0.00631847,-0.01062472,-0.03282618,-0.00290000
22509,20051006,PPG,-0.00690000,-0.00400000,-0.00290000,0.01344774,-0.00511545,-0.02185324,0.01684400
22509,20051007,PPG,0.02084400,0.00400000,0.01684400,0.00595381,0.00229481,-0.01926021,-0.00766000
22509,20051010,PPG,-0.01466000,-0.00700000,-0.00766000,0.00181428,-0.00122484,-0.01865645,-0.00703300
22509,20051011,PPG,-0.00903300,-0.00200000,-0.00703300,-0.00845370,0.00503954,-0.00242068,0.00617900
22509,20051012,PPG,0.00017900,-0.00600000,0.00617900,0.00437542,0.01322765,0.00219650,0.00528900
22509,20051013,PPG,0.00428900,-0.00100000,0.00528900,0.01531526,0.00036598,-0.00472000,0.00374400
22509,20051014,PPG,0.01174400,0.00800000,0.00374400,0.00875081,0.00779699,0.00986706,-0.00036200
22509,20051017,PPG,0.00263800,0.00300000,-0.00036200,0.00602598,0.01752621,0.01586906,0.00263300
22509,20051018,PPG,-0.00736700,-0.01000000,0.00263300,-0.00452263,0.00456752,0.00963696,-0.00687100
22509,20051019,PPG,0.00812900,0.01500000,-0.00687100,0.02337855,0.02706981,0.04034031,0.02744500
22509,20051020,PPG,0.01244500,-0.01500000,0.02744500,0.02791313,0.03006613,0.03019932,0.00683000
22509,20051021,PPG,0.00883000,0.00200000,0.00683000,0.03288566,0.02874530,0.03688952,-0.00207000
